77
76
64
50
5
5
4
110
104
39
80
4
6
43
25
60
4
33
4
249
235
162
12
199
58
62
90
54
82
50
200
25
18
77
84
111
26
104
49
98
173
95
35
45
99
3
4
83
17
6
72
77
73
21
3
28
99
104
105
77
119
86
86
231
195
108
124
21
7
36
69
168
127
60
117
6
102
31
23
73
12
82
91
5
75
31
56
121
85
18
73
75
31
67
202
63
38
68
87
19
107
2
120
5
13
111
38
113
88
24
28
3
73
66
7
78
76
66
68
116
208
133
42
251
90
53
3
60
195
68
120
14
95
51
45
58
44
12
3
53
68
66
85
58
40
60
38
26
65
112
94
63
95
26
72
156
93
86
76
65
22
98
136
22
24
61
83
43
37
229
63
6
74
71
218
117
45
56
76
74
94
69
101
79
91
4
62
34
83
4
50
67
67
29
36
6
73
83
232
63
36
235
207
199
17
93
68
131
87
33
42
139
78
7
72
74
25
129
*****
16
35
27
112
178
286
207
209
331
314
152
194
107
163
67
139
123
45
55
21
108
69
59
205
127
42
21
281
22
3
89
52
189
98
68
173
104
263
25
104
147
163
70
35
85
147
130
72
90
101
102
4
201
109
223
86
30
33
103
107
91
82
271
145
46
28
257
117
55
208
401
177
10
145
118
101
59
74
75
39
103
43
3
12
94
94
81
13
337
248
72
153
190
222
54
35
62
129
99
3
261
205
48
74
88
96
45
121
4
29
6
199
140
79
3
92
143
80
90
97
271
138
49
17
182
111
7
85
40
45
125
4
80
88
126
131
82
72
52
126
50
356
255
46
4
82
95
173
49
62
132
91
38
133
85
75
131
130
10
36
204
25
42
51
79
57
97
217
200
232
83
2
85
89
135
118
55
50
183
182
26
121
221
75
75
29
65
36
89
4
60
66
88
31
3
59
69
134
96
28
226
137
150
75
170
138
194
61
7
61
63
10
3
77
45
98
6
91
56
96
148
82
67
304
28
43
57
57
64
26
137
64
4
87
50
31
28
52
81
38
90
53
108
104
264
88
181
40
95
79
69
69
270
167
13
285
202
147
48
88
52
110
95
81
54
135
3
61
69
71
37
8
91
74
58
19
156
3
49
73
3
244
29
236
147
159
3
63
46
85
46
6
68
77
143
80
26
156
255
269
10
188
55
34
93
10
20
142
41
4
53
77
147
116
4
240
64
135
25
69
100
63
108
53
92
46
207
2
71
74
33
223
6
25
73
13
100
41
4
4
3
162
67
329
10
94
94
12
23
182
37
107
210
175
206
57
168
127
115
10
131
76
99
109
80
50
41
103
114
92
156
5
88
75
100
15
3
3
14
96
68
208
56
4
86
167
110
53
75
116
82
39
69
72
20
2
51
74
63
17
19
188
61
37
90
79
21
*****
85
97
55
80
34
74
44
35
78
63
9
4
6
88
133
210
203
183
101
189
92
144
308
4
73
66
169
174
116
112
48
158
40
212
70
201
209
170
175
99
98
96
42
115
119
87
56
260
161
4
56
156
258
61
93
100
126
130
70
85
63
113
3
64
80
142
133
81
95
128
156
4
234
268
220
3
82
28
88
70
33
150
36
121
103
77
97
71
135
20
146
83
143
52
100
154
236
106
136
275
75
76
13
87
71
163
34
21
229
183
27
163
255
333
24
69
64
145
136
111
76
165
145
89
99
103
85
16
221
385
8
128
78
80
200
162
50
76
144
6
112
8
73
31
87
81
91
80
125
138
113
88
60
6
102
92
55
83
115
20
57
195
70
60
73
52
66
95
20
138
120
280
2
74
114
115
80
22
30
133
36
2
86
80
43
112
45
230
114
274
69
209
116
135
4
53
55
239
133
27
2
3
94
62
198
63
198
120
275
34
143
138
75
10
76
69
126
10
4
134
140
42
79
65
87
21
103
239
149
6
50
89
79
105
124
91
14
170
170
4
81
69
97
86
24
242
73
80
106
66
91
5
125
59
2
78
154
111
7
200
265
182
*****
442
105
21
88
48
150
151
179
143
152
141
146
152
136
127
100
89
147
132
3
162
195
71
6
81
72
115
107
54
22
268
6
94
107
72
84
89
49
26
70
135
101
41
81
195
166
95
10
327
70
97
79
86
6
142
3
42
61
193
131
31
90
173
108
82
290
290
65
110
94
3
86
86
33
69
8
15
30
33
7
79
156
79
3
60
59
31
133
48
75
298
153
20
147
172
58
66
85
60
101
132
21
26
199
7
122
93
80
30
99
50
150
300
60
60
63
66
139
130
15
3
191
268
30
52
90
10
114
3
226
137
253
5
55
16
11
133
3
3
87
160
155
24
79
268
48
46
69
80
4
202
29
189
95
61
101
93
95
33
215
7
74
92
101
132
89
88
275
109
67
69
193
159
135
115
214
92
39
75
90
26
126
49
83
199
115
73
149
59
94
100
89
80
6
131
44
3
62
3
245
23
55
50
103
94
6
121
92
81
80
21
58
152
36
85
3
83
25
9
100
80
55
113
94
37
4
3
54
15
183
90
72
81
100
50
43
7
155
47
23
53
64
83
3
66
40
19
92
114
156
*****
168
136
55
78
207
89
125
14
6
83
81
70
72
65
58
64
55
107
106
46
41
46
81
85
7
212
298
104
50
120
236
105
47
137
80
86
98
3
121
86
124
5
61
67
180
94
48
111
250
57
19
42
59
36
120
28
104
184
25
37
5
53
68
94
3
50
74
94
103
45
137
267
105
78
206
77
91
86
6
81
80
86
76
19
62
252
67
57
60
58
42
72
68
112
67
42
92
52
96
158
76
10
39
47
6
94
41
51
61
46
91
16
198
70
42
82
31
59
63
142
2
91
69
39
7
109
50
28
159
101
48
91
242
113
2
108
205
155
3
53
72
63
15
42
41
69
33
70
3
65
43
92
96
117
7
54
70
73
4
56
33
67
105
26
68
218
104
62
136
41
42
88
53
57
202
83
29
3
57
56
67
5
75
74
17
67
65
39
92
26
80
95
127
4
57
102
33
60
93
92
66
77
33
28
72
169
245
122
166
4
60
43
69
92
4
43
68
54
5
53
69
55
135
95
7
57
74
*****
88
29
61
183
32
70
82
75
64
58
64
72
77
57
66
35
68
102
229
53
11
65
93
107
3
186
253
119
22
39
3
10
49
172
42
137
69
52
42
64
132
83
3
36
8
250
107
37
226
61
51
39
66
71
30
85
3
61
60
132
110
54
19
269
11
43
59
49
59
112
23
117
167
45
43
143
197
221
3
60
80
19
42
92
79
67
86
97
17
141
94
3
127
49
66
96
134
40
3
79
53
13
72
64
64
78
103
51
5
31
67
119
76
77
120
70
48
3
62
127
124
82
5
22
113
91
43
56
120
90
131
50
132
190
111
63
151
77
34
64
42
213
107
30
105
131
123
31
170
210
9
95
95
62
53
43
7
38
54
70
51
12
45
52
78
92
4
63
31
105
104
52
53
92
39
26
55
84
74
3
90
61
68
155
117
11
12
118
180
159
142
217
88
3
47
51
61
20
2
65
64
108
75
12
30
39
43
47
47
41
3
24
77
4
82
4
159
92
14
5
63
58
79
51
86
6
40
67
44
234
104
117
3
38
53
5
108
16
4
66
9
180
2
26
47
11
79
15
4
53
135
29
91
164
181
171
30
3
45
81
45
83
45
32
25
26
13
162
59
10
55
39
54
97
147
6
24
41
18
3
19
48
35
15
3
22
45
17
109
34
177
9
34
63
63
24
56
5
13
62
3
20
56
51
*****
70
27
3
52
51
57
14
69
42
14
4
48
3
45
2
24
72
77
74
88
139
4
35
82
31
217
128
27
9
27
92
104
75
88
98
30
41
47
67
27
6
42
40
49
41
96
26
5
78
97
39
3
40
57
176
80
100
86
113
85
75
56
55
207
125
35
37
188
4
77
78
51
171
89
61
99
3
82
93
67
187
113
26
86
62
6
182
49
63
50
66
6
8
55
57
72
46
267
135
61
4
89
105
69
73
279
46
33
40
27
11
111
3
186
167
12
60
64
89
126
103
23
62
183
3
54
38
41
21
91
22
51
63
91
130
4
98
55
124
110
61
60
121
118
58
4
159
236
75
83
43
89
102
35
127
164
73
50
140
58
95
65
77
43
166
4
64
68
78
139
107
41
42
137
127
61
192
2
113
68
52
18
213
70
50
3
73
141
89
32
125
265
141
173
6
35
81
103
83
78
182
69
69
45
62
122
101
49
42
206
90
21
142
3
40
81
59
157
113
3
24
64
77
24
79
7
56
49
81
186
50
173
93
87
86
84
54
192
4
63
85
49
65
5
76
65
86
87
84
5
75
75
45
271
93
215
46
72
95
58
20
102
25
37
67
58
48
89
6
68
102
98
103
74
85
99
190
44
3
47
260
114
64
46
198
103
25
103
167
198
154
24
3
91
113
3
244
211
4
103
35
31
124
127
110
88
89
126
48
37
96
57
94
4
309
131
75
16
7
47
189
103
18
34
154
48
71
60
56
30
71
51
19
39
54
92
38
33
72
71
66
27
36
30
156
20
41
55
22
26
46
77
26
64
86
4
18
53
96
104
54
26
178
24
21
49
52
36
47
31
20
59
73
71
25
3
36
67
84
92
132
186
133
4
48
62
1
104
72
205
39
59
81
76
88
12
211
49
31
59
69
79
3
53
41
4
231
74
160
74
29
33
24
46
81
3
73
16
5
3
33
57
52
199
79
90
79
65
82
43
65
77
24
57
88
13
4
67
67
81
7
73
54
89
12
177
42
109
53
3
80
76
12
92
64
76
23
3
28
75
57
13
2
8
3
3
72
48
66
116
79
137
16
3
76
77
6
101
78
31
68
2
179
129
17
53
27
51
40
19
132
72
75
76
70
41
71
*****
101
62
72
100
83
83
83
77
92
68
90
59
42
22
44
27
4
5
36
53
46
85
4
38
54
49
104
36
48
24
55
90
44
52
122
75
94
31
31
66
91
39
295
72
3
83
13
51
52
75
73
4
287
146
16
2
99
96
9
166
49
69
65
20
27
60
166
67
58
79
77
75
99
124
43
43
29
59
24
4
42
33
17
82
124
76
121
186
35
58
48
78
88
4
37
68
80
91
22
187
287
164
177
112
190
19
135
118
235
4
98
68
64
58
26
46
25
59
4
75
3
60
75
92
78
39
13
32
112
89
5
4
50
99
43
64
48
39
66
105
7
70
3
86
67
139
163
184
56
2
65
64
110
118
52
18
304
30
162
121
242
178
51
270
111
113
28
181
225
103
57
34
75
8
74
13
78
46
9
169
37
81
23
86
96
8
123
36
105
66
58
74
105
120
5
209
89
44
91
81
83
132
54
108
256
131
80
8
44
77
240
89
22
101
296
100
82
137
156
108
4
72
54
97
15
3
48
10
172
112
30
21
205
80
38
71
64
73
88
3
52
42
126
96
65
99
102
86
61
70
66
5
61
85
58
61
126
74
57
147
171
53
35
53
80
142
110
28
17
184
7
84
82
75
5
4
94
6
158
169
152
42
13
48
38
78
4
13
53
97
101
4
184
101
21
4
68
60
36
140
83
135
61
69
73
31
31
54
219
6
38
62
42
5
54
34
69
65
115
106
12
58
75
75
30
44
155
9
47
54
68
20
4
41
3
60
111
142
110
60
207
153
4
27
51
127
88
2
28
58
70
66
3
53
41
4
50
18
47
43
2
200
2
54
34
11
46
4
35
24
83
88
24
76
87
10
108
51
13
68
68
60
19
84
118
41
4
42
49
188
64
9
24
51
71
70
107
54
93
2
61
5
128
3
64
45
33
73
4
49
64
60
156
105
88
4
42
60
44
88
35
52
70
11
28
73
13
73
34
83
24
4
28
5
50
51
17
76
3
29
3
53
62
191
63
34
179
76
62
67
3
120
159
4
57
*****
3
118
92
35
93
4
35
105
3
25
28
5
27
36
64
62
48
41
108
2
28
43
118
83
138
48
161
69
36
37
38
4
159
109
22
50
87
105
50
79
113
85
2
3
56
146
118
38
73
204
64
6
77
95
192
113
5
131
77
76
65
20
34
225
65
33
21
3
113
88
24
176
86
4
82
22
117
89
255
54
108
50
45
104
71
101
38
125
63
67
277
111
135
12
35
4
100
6
140
140
67
30
40
34
23
94
6
64
66
77
60
93
7
72
21
35
39
138
69
68
86
51
95
179
21
6
49
77
7
93
76
72
65
94
293
94
147
185
263
39
4
64
124
76
12
257
191
36
60
28
16
7
147
8
55
52
143
110
58
52
268
18
103
228
215
51
2
66
35
193
85
97
230
112
315
2
40
68
172
112
3
165
128
51
4
66
75
283
72
8
56
67
127
97
54
160
256
56
17
73
80
43
110
5
185
99
99
65
76
61
215
11
66
140
9
75
90
3
55
59
3
82
2
63
64
79
68
28
52
34
5
246
80
83
61
75
98
3
2
51
5
148
5
40
31
31
37
31
50
62
85
58
68
128
48
52
37
22
16
94
180
21
39
57
27
5
122
205
29
32
61
33
59
255
82
62
*****
63
42
76
55
70
14
101
3
34
88
98
233
55
143
144
12
101
251
4
24
49
31
2
37
62
70
39
9
63
76
52
49
104
4
17
61
99
92
77
52
49
53
95
8
88
44
64
92
2
4
30
57
53
39
7
59
21
9
56
66
71
24
266
162
11
85
53
94
36
61
155
36
57
60
78
5
52
85
60
70
99
16
20
74
62
84
82
42
70
100
73
73
49
69
159
105
16
48
177
159
32
135
25
61
18
3
282
289
7
104
76
111
100
66
73
69
173
89
5
36
32
141
113
52
47
197
112
26
92
57
94
99
54
17
151
328
196
29
63
25
93
40
38
206
103
63
138
324
39
2
55
59
18
200
29
136
29
93
54
5
166
162
88
53
14
74
93
111
68
254
11
53
66
56
58
55
10
12
86
55
106
80
2
69
131
16
75
58
49
181
78
48
164
181
169
59
3
64
72
75
3
62
84
8
74
96
49
63
122
104
23
92
172
165
58
112
130
63
51
70
68
32
65
5
68
53
173
120
55
142
141
109
27
27
193
211
59
89
50
102
110
86
55
6
69
79
67
68
239
85
3
24
64
120
89
35
70
5
80
102
3
166
157
46
44
55
67
186
94
32
103
36
124
9
56
64
41
3
36
33
42
24
8
56
52
54
3
54
53
32
49
63
160
82
223
137
220
138
92
10
97
81
28
46
154
25
6
53
57
40
21
6
57
29
19
199
77
5
66
42
8
80
65
50
13
60
7
67
56
3
4
78
38
64
63
70
69
4
22
62
56
*****
34
35
38
27
56
46
21
23
10
43
90
7
165
152
221
126
100
70
36
44
54
85
6
44
55
38
37
20
7
36
59
90
94
24
26
41
3
93
2
11
6
11
55
45
41
122
111
52
6
21
40
11
20
13
82
53
40
73
64
95
4
56
65
52
33
6
5
11
3
55
58
31
9
56
40
43
156
4
38
53
5
316
60
4
36
64
16
137
111
2
35
74
69
10
112
109
80
3
5
48
282
63
70
3
87
88
54
32
57
50
71
86
26
213
14
44
49
39
63
156
16
44
5
38
23
3
72
35
69
38
98
29
39
4
99
132
3
5
37
192
57
15
20
47
13
72
35
136
202
76
64
62
40
43
18
63
22
21
76
76
4
22
50
36
75
12
192
145
104
42
97
42
63
78
44
82
159
146
7
57
6
236
88
42
44
64
50
73
36
109
72
47
73
64
67
118
74
11
13
41
70
89
19
138
258
126
51
209
9
60
77
27
54
83
26
56
27
50
26
194
4
36
50
122
70
7
38
49
3
76
18
48
27
3
178
21
28
36
83
62
4
4
41
58
64
13
52
42
10
51
21
166
3
30
54
24
179
21
159
29
28
27
19
60
4
43
72
4
30
3
55
45
8
18
56
24
12
26
89
32
44
43
91
4
45
31
47
65
26
4
3
36
62
5
43
8
24
58
11
55
29
89
4
44
28
29
135
202
52
5
19
63
42
42
6
59
35
11
74
3
37
34
6
12
29
96
49
38
51
54
17
31
101
33
205
4
26
60
50
8
16
45
53
44
10
160
157
9
32
3
25
124
20
5
3
97
18
37
44
18
3
2
34
39
2
39
45
26
65
7
14
28
3
42
19
37
40
2
41
38
42
49
6
11
26
34
33
13
17
60
35
46
8
44
48
28
45
53
49
103
36
52
38
39
11
*****
75
82
65
73
72
70
43
31
158
81
110
183
43
10
7
82
86
75
32
45
223
63
37
37
58
43
95
3
33
46
21
63
57
39
5
103
70
78
72
137
69
47
34
52
38
26
12
17
10
55
21
118
35
24
46
66
37
13
133
10
13
32
46
32
75
26
88
11
36
67
3
203
76
34
50
5
22
142
83
47
40
48
76
3
55
46
50
21
10
20
29
47
30
57
18
142
76
72
68
54
4
48
41
64
3
192
147
46
40
42
41
5
46
18
31
58
3
44
10
34
32
124
81
2
35
42
47
46
28
102
226
3
48
44
17
16
51
26
48
56
10
25
6
49
45
92
30
8
56
51
119
71
186
7
40
59
72
4
55
36
68
69
47
244
94
21
51
36
42
35
92
36
49
43
58
40
4
38
33
37
7
52
43
61
93
36
14
36
48
4
106
55
245
4
65
67
6
21
53
47
46
49
20
3
54
64
29
72
3
2
18
7
5
47
70
42
34
5
211
80
82
14
44
41
4
18
30
39
24
18
14
31
42
31
41
8
49
42
64
91
22
*****
45
59
52
42
56
34
18
28
15
36
2
36
32
14
12
113
10
15
70
7
26
35
5
45
41
5
4
61
38
44
125
47
24
33
54
15
51
11
159
67
9
48
7
75
20
27
48
13
122
131
56
6
40
47
44
3
48
29
36
39
60
11
42
29
30
91
4
48
18
35
32
4
29
42
48
41
42
13
35
46
50
53
127
3
35
58
8
3
43
4
207
29
39
39
48
44
22
93
38
28
45
7
137
128
172
36
95
28
46
63
2
32
44
16
58
102
4
2
36
66
94
209
64
29
44
47
49
80
123
46
3
52
5
133
64
24
32
33
42
49
105
50
34
50
17
27
54
139
3
2
67
172
64
23
48
62
49
84
2
58
53
57
64
79
93
60
43
34
13
32
52
3
54
5
32
40
44
66
31
9
46
74
33
47
91
37
54
66
32
63
112
151
4
38
35
80
3
4
5
102
79
4
63
3
14
22
55
80
10
213
158
54
61
33
39
54
75
3
31
25
38
82
127
4
37
63
69
4
4
26
24
47
4
18
29
99
33
58
39
42
30
59
26
218
10
39
59
52
42
149
76
9
45
49
127
71
5
56
35
23
70
31
74
3
68
50
29
94
46
57
73
6
3
65
18
48
4
47
63
25
8
67
51
64
58
97
35
42
33
3
29
10
37
31
6
79
48
50
37
45
42
6
24
46
11
17
8
7
4
13
53
50
30
91
55
53
52
5
18
4
10
54
13
166
27
4
48
3
148
2
35
60
35
14
12
20
50
4
156
93
100
2
39
41
10
42
3
44
53
6
29
42
3
129
8
44
45
3
55
32
40
41
2
48
12
29
23
26
3
30
64
55
6
19
42
36
50
4
84
45
23
53
22
27
47
25
29
13
67
79
2
59
3
13
28
42
35
37
53
4
39
46
31
111
63
37
37
6
50
147
94
*****
53
53
51
5
40
26
4
8
26
4
24
118
11
9
33
28
63
3
4
23
42
24
48
18
61
38
57
48
6
27
38
16
60
13
27
5
3
32
30
35
33
3
99
18
37
20
6
44
29
32
59
13
23
8
46
43
19
5
40
46
37
7
6
48
5
31
42
44
55
29
158
177
2
51
44
49
34
3
42
29
22
83
57
9
42
4
6
60
61
4
3
43
3
105
2
38
11
35
10
19
46
38
4
230
145
13
21
26
45
33
31
70
98
37
18
41
26
3
43
11
48
13
5
40
29
31
77
14
32
41
44
35
38
48
28
37
37
54
2
48
55
3
63
6
48
59
29
41
5
23
6
37
29
54
3
143
290
75
4
23
45
5
90
60
47
67
117
3
61
60
55
31
28
3
32
45
103
80
4
55
61
64
79
32
153
53
37
60
20
16
57
124
3
25
47
122
54
5
33
6
107
79
21
228
126
6
71
41
60
25
85
55
44
35
50
6
6
41
46
161
3
59
42
35
90
38
50
45
41
3
9
62
29
24
128
47
4
31
56
10
9
50
51
49
8
2
53
106
61
193
89
54
78
51
3
15
16
2
31
99
4
51
53
47
42
5
72
31
42
3
15
45
8
6
22
52
57
4
74
34
34
61
3
39
52
8
24
5
49
57
79
142
73
42
39
71
72
14
55
3
44
53
24
56
8
15
53
6
17
38
4
26
5
43
39
79
38
36
41
42
29
3
41
11
48
41
26
73
40
48
6
43
38
26
32
7
50
29
53
63
80
50
26
4
20
23
6
38
26
50
79
23
3
37
39
23
56
33
49
42
26
17
63
4
34
9
41
32
7
5
5
32
46
5
23
39
12
13
44
55
39
51
60
4
34
31
41
21
49
48
6
50
27
11
130
47
3
60
62
37
3
55
49
3
67
48
43
55
12
40
4
44
34
26
132
84
136
3
24
41
116
9
5
32
57
66
4
50
5
85
15
36
49
12
54
51
23
49
22
32
12
68
2
17
25
31
158
3
28
38
30
58
3
32
38
3
43
32
20
37
78
143
*****
7
2
135
222
176
4
3
89
65
3
70
62
84
70
59
69
61
60
4
55
75
173
39
58
39
65
48
67
7
4
50
68
25
23
24
54
6
44
5
34
59
3
49
38
42
17
22
37
10
36
38
43
19
32
3
15
10
55
6
49
34
8
28
52
38
40
7
37
43
23
9
90
60
59
19
6
3
35
66
4
35
18
39
77
4
39
35
4
3
53
26
48
146
45
4
37
28
27
5
56
30
44
74
178
30
72
16
67
72
22
212
50
95
59
39
59
68
41
3
48
43
69
13
33
47
40
66
22
3
39
40
61
36
3
45
44
32
15
4
4
9
3
96
58
52
61
27
77
47
29
3
45
50
60
20
28
5
5
37
20
31
41
6
46
5
44
35
45
4
44
40
45
3
47
43
9
83
66
47
39
5
169
3
22
59
36
29
16
6
7
8
35
39
12
5
27
26
44
109
53
2
6
34
58
7
3
25
38
7
30
56
4
110
34
30
41
39
42
85
123
44
3
28
14
29
73
12
30
17
35
29
46
29
31
41
3
30
16
35
57
23
3
39
56
46
18
90
6
51
52
4
29
46
11
37
63
25
56
59
55
22
69
35
47
41
73
8
4
7
5
28
10
6
168
34
20
38
36
11
40
37
160
7
28
43
3
30
32
9
4
39
41
34
47
7
45
34
5
14
37
47
7
3
25
55
29
5
57
39
38
7
11
31
24
10
36
143
90
40
47
51
19
11
79
49
34
43
33
74
25
27
15
43
4
23
9
21
44
5
41
33
23
33
4
46
38
3
16
75
35
34
4
192
26
5
61
4
102
161
52
*****
60
48
56
30
55
27
35
5
3
31
51
12
12
3
5
31
3
40
19
107
155
68
58
25
17
66
7
68
35
38
172
71
28
101
65
3
52
4
215
172
184
5
49
64
53
51
38
42
12
27
80
12
45
18
38
80
3
92
51
50
52
14
175
143
3
18
57
59
34
7
47
54
62
25
16
4
59
18
162
55
21
102
78
70
55
32
43
228
48
29
42
24
24
71
70
10
19
50
49
4
77
40
64
76
4
4
38
34
4
50
38
19
3
36
7
4
80
40
53
36
9
207
94
60
58
7
11
32
5
21
3
26
55
22
65
2
50
54
2
20
3
10
51
9
27
49
7
58
35
11
31
4
77
12
37
55
34
16
50
7
28
6
5
17
4
34
3
29
34
189
30
*****
5
8
33
18
52
43
32
24
55
56
34
47
43
36
4
27
12
76
54
35
59
4
49
96
49
53
4
39
43
35
49
39
5
4
37
67
7
56
36
39
77
27
229
67
22
58
54
65
174
41
3
47
47
62
62
48
47
4
53
19
3
64
64
109
40
35
54
36
56
90
32
151
157
78
3
56
48
7
32
58
54
51
6
32
50
23
52
180
17
41
3
37
64
26
27
15
46
15
67
5
32
48
3
29
3
10
63
135
66
2
32
41
100
88
39
43
62
85
72
2
105
152
63
3
22
67
8
56
66
49
30
69
170
4
66
38
30
56
32
3
63
79
41
66
63
53
25
89
54
166
41
55
83
6
246
195
37
62
30
30
34
60
50
180
96
50
81
29
81
66
139
4
64
47
63
43
2
70
74
4
127
57
48
56
4
95
6
49
55
86
155
3
58
54
24
4
37
61
12
39
5
36
4
3
2
4
34
4
29
53
80
159
14
76
36
11
48
16
98
19
19
34
4
66
33
49
47
3
61
3
4
146
10
133
10
28
32
11
22
7
34
47
62
4
2
3
3
24
47
45
21
48
*****
17
4
4
4
48
20
9
6
5
4
41
9
34
29
2
44
42
44
32
38
12
20
3
48
4
73
14
40
54
4
14
31
48
56
6
16
25
11
45
8
15
41
15
49
69
55
24
67
57
2
183
154
8
54
6
92
10
13
39
23
38
143
2
46
46
54
10
114
13
82
34
59
63
4
3
49
10
3
48
4
23
65
62
34
13
46
161
60
79
63
31
48
56
4
5
24
19
3
40
36
44
83
26
3
35
43
3
3
45
5
108
68
56
45
7
32
48
52
42
4
29
4
24
60
22
94
27
61
43
49
50
124
5
50
4
17
66
47
24
18
41
54
2
43
3
45
49
48
46
23
95
15
30
36
4
3
15
80
74
11
54
107
9
73
26
3
67
47
55
2
166
183
67
3
55
50
65
140
41
29
59
38
69
53
212
253
30
50
16
8
7
3
52
11
14
27
5
67
39
3
12
49
58
5
5
8
258
34
35
49
54
17
90
4
41
56
5
101
54
77
41
35
70
16
125
176
33
68
44
32
61
54
29
96
15
63
74
15
44
71
48
60
7
107
88
103
18
3
37
124
69
22
61
22
60
60
31
4
39
46
84
7
86
40
75
75
42
143
208
36
5
34
41
40
85
3
37
55
90
42
56
48
53
34
25
4
66
37
148
73
18
238
270
128
66
135
44
29
54
9
3
32
42
67
27
228
49
57
6
42
10
154
48
29
25
29
5
3
38
23
56
22
53
6
57
6
15
53
56
6
60
12
52
68
9
110
41
10
46
55
50
34
11
26
34
37
37
4
4
9
106
17
111
5
41
44
43
65
5
32
53
62
23
31
29
33
2
196
3
56
52
240
75
16
254
94
85
5
31
3
14
45
62
3
38
21
44
52
15
67
7
60
75
6
39
33
61
62
33
59
3
2
82
4
15
45
44
135
2
23
35
21
12
99
48
49
39
52
4
45
26
89
44
9
23
48
14
67
40
*****
5
43
53
62
58
46
17
37
4
100
106
37
4
4
6
69
97
43
54
70
130
26
62
38
71
82
4
36
44
77
69
36
237
119
38
4
42
48
16
15
19
44
38
59
48
39
127
28
53
49
24
14
114
4
38
36
46
82
64
6
69
52
3
49
59
42
34
33
62
16
39
49
192
57
4
24
52
3
96
3
40
52
118
76
4
40
38
43
3
34
38
48
2
77
24
48
54
53
102
4
37
35
5
164
10
187
142
64
33
51
29
7
77
4
19
43
46
3
45
4
174
290
3
53
44
62
14
75
5
34
63
71
114
3
4
7
25
66
76
4
192
113
5
50
36
44
130
55
21
30
37
36
56
6
16
13
39
51
47
18
21
21
61
39
40
200
10
9
28
57
35
112
3
43
40
47
42
2
37
41
123
54
4
29
32
13
48
11
125
4
67
55
16
134
82
43
26
39
44
3
150
53
48
50
4
3
49
34
28
65
36
6
16
18
30
7
33
4
120
106
3
43
24
56
75
88
31
35
39
6
69
40
35
29
4
84
18
44
39
43
61
6
46
38
*****
7
45
36
61
28
74
61
43
17
43
83
99
157
197
19
27
37
62
73
208
4
48
50
152
99
17
83
3
4
139
13
137
78
84
66
28
47
103
6
48
29
60
25
9
45
39
38
74
22
22
38
37
135
70
22
134
194
64
4
6
7
90
45
67
63
16
35
23
55
55
31
101
51
136
3
38
59
61
6
107
112
122
53
21
68
42
72
10
136
56
3
65
4
179
3
42
75
3
62
41
72
78
12
215
222
61
10
36
40
56
29
26
259
140
4
38
32
3
27
43
60
5
145
133
23
10
41
42
36
31
3
10
54
43
14
60
23
46
82
63
30
139
130
35
2
28
50
82
41
12
49
42
6
7
56
46
74
179
12
3
33
31
33
34
6
41
48
18
9
36
24
32
39
113
48
58
32
46
60
5
14
28
54
72
4
4
40
45
55
12
33
42
2
40
68
33
54
4
78
2
42
41
11
65
18
45
46
43
8
4
33
42
142
13
4
52
27
111
24
18
92
20
44
54
38
97
4
35
37
43
125
183
51
5
48
54
10
3
52
45
33
140
10
5
41
41
17
13
3
47
27
78
50
36
41
26
18
56
18
41
20
44
55
42
5
26
51
53
2
72
39
44
30
3
30
37
95
56
27
103
15
18
27
38
53
74
102
87
4
31
117
62
8
21
37
38
48
3
36
34
4
41
91
32
46
38
47
5
18
28
4
17
3
6
3
39
*****
3
4
24
111
48
24
71
50
23
4
54
46
59
47
62
61
53
41
33
45
27
3
243
109
83
38
44
47
4
100
293
54
6
52
47
34
5
61
12
51
51
101
97
8
31
38
19
34
46
43
54
76
4
36
44
47
65
34
144
3
67
78
3
233
36
64
69
62
65
215
36
46
4
40
94
18
94
36
27
16
37
54
127
37
35
77
16
55
113
57
5
5
18
183
32
11
47
48
29
7
19
27
15
17
21
129
117
6
62
80
3
202
243
109
13
158
206
22
40
62
51
58
60
57
4
45
35
38
4
39
35
4
161
5
54
53
51
51
4
38
52
104
42
32
145
112
4
70
15
49
59
117
55
17
42
25
58
67
132
116
8
50
62
25
37
85
40
31
39
2
23
41
37
23
6
110
16
40
49
13
47
4
45
39
5
46
45
20
22
94
85
4
35
61
70
19
34
3
30
6
106
9
53
57
53
106
75
77
54
43
89
4
7
44
69
93
6
27
53
64
31
4
61
53
24
35
29
44
60
39
29
99
93
39
79
84
4
33
52
55
51
37
212
185
25
52
52
54
2
64
5
31
61
129
3
11
57
39
5
202
59
16
36
6
3
24
44
38
54
144
38
141
38
54
51
43
38
54
173
6
55
63
19
64
15
54
34
44
43
3
10
38
39
63
3
51
43
7
27
23
20
28
73
15
6
14
38
91
65
4
17
39
139
39
94
*****
50
54
57
48
39
40
38
35
54
42
52
4
43
50
5
4
63
19
4
42
51
4
16
56
52
53
33
20
219
62
13
31
50
29
45
92
32
32
56
54
25
58
94
56
52
3
91
32
64
61
4
76
18
47
42
65
12
4
53
54
46
6
31
49
64
3
4
39
30
26
107
83
10
56
62
50
3
11
37
52
27
8
13
50
51
24
49
68
59
59
20
5
4
49
43
4
41
47
60
32
146
38
3
59
58
4
114
6
77
86
31
83
109
68
55
50
57
3
51
47
57
52
25
149
251
88
49
39
50
31
7
11
24
66
33
5
29
34
73
36
92
29
4
72
3
19
55
45
73
20
8
48
38
61
55
140
134
10
24
39
30
24
55
17
189
25
57
56
8
39
57
72
71
9
70
5
32
36
167
14
58
177
17
38
30
71
30
116
36
85
55
48
30
30
78
59
22
49
33
48
7
26
16
55
99
91
12
56
62
3
116
3
52
41
166
72
6
3
56
50
35
9
45
38
106
82
12
119
4
61
63
31
2
36
44
64
3
5
60
114
62
49
104
268
31
29
38
17
6
102
41
103
117
172
89
23
32
49
64
129
46
142
24
3
55
41
60
56
36
50
49
39
62
13
129
113
39
8
3
106
138
24
15
40
37
73
41
8
5
56
139
6
3
25
31
24
103
4
44
28
136
58
13
244
52
149
38
47
31
42
32
68
85
13
34
78
2
37
43
79
81
2
5
59
114
68
65
117
166
18
32
53
48
9
21
20
30
45
49
2
35
61
29
4
255
3
18
60
51
158
23
70
3
3
178
187
79
149
29
33
64
36
84
4
15
44
66
109
81
6
36
23
42
14
9
39
47
41
39
7
53
23
107
51
27
291
185
29
6
22
56
12
42
35
30
18
3
33
3
32
3
8
34
28
9
17
31
28
71
59
159
37
79
40
46
67
9
5
63
3
149
34
50
57
3
112
70
3
44
23
42
94
105
4
36
58
45
106
74
140
31
13
32
10
37
6
27
43
28
44
118
4
50
37
37
3
14
46
35
51
76
75
3
30
38
*****
60
55
44
45
51
42
3
36
43
8
17
53
123
27
19
36
38
125
31
92
49
48
32
61
172
76
36
66
47
79
72
56
126
159
122
2
40
60
26
27
2
52
57
100
84
192
3
45
56
80
22
8
40
77
103
29
69
180
76
28
43
51
28
82
4
34
34
53
55
5
2
55
24
113
74
44
23
80
79
5
8
44
49
7
64
50
50
23
16
45
4
48
88
202
9
49
56
8
234
44
2
29
13
21
29
3
62
162
83
59
6
49
62
74
41
176
230
116
10
69
3
46
6
39
43
45
64
3
48
66
44
37
117
43
64
12
70
65
62
38
49
57
62
46
41
38
4
50
36
82
177
77
15
44
36
48
67
104
31
95
62
44
3
31
169
98
72
35
54
174
60
18
103
134
31
3
31
46
31
4
56
19
50
47
211
10
79
42
29
57
61
109
235
5
51
26
24
72
79
20
61
35
36
18
2
37
5
26
237
48
2
30
77
3
50
24
47
81
11
37
38
37
28
60
27
77
31
45
52
4
4
36
10
44
3
18
45
4
92
55
32
48
45
117
225
33
105
109
25
25
4
4
5
50
4
73
12
58
45
6
194
118
38
20
54
28
4
52
22
34
35
3
209
8
35
33
41
3
34
48
51
78
17
11
9
32
6
50
47
9
22
4
45
55
21
55
18
48
58
11
3
3
18
68
42
38
22
5
24
17
162
7
38
63
24
104
76
32
57
51
45
43
3
41
19
37
4
4
57
3
17
32
49
42
3
52
47
29
59
5
10
49
64
79
5
32
52
52
33
23
34
4
6
186
19
87
14
72
60
3
*****
87
46
23
19
75
55
39
52
53
53
20
53
47
57
32
5
48
35
22
68
60
5
61
79
5
52
27
67
129
91
48
53
4
4
49
44
22
48
39
12
92
55
46
49
62
2
5
52
15
18
42
61
53
50
66
96
33
23
52
90
33
205
186
49
27
3
51
21
19
10
22
49
3
128
8
38
51
8
17
22
49
54
8
94
63
56
39
98
12
7
57
52
54
25
4
45
48
130
43
79
106
4
69
77
24
12
135
85
39
62
48
122
57
28
184
142
3
66
34
44
137
3
36
21
37
36
4
37
33
69
80
67
34
40
43
15
44
52
113
91
3
67
26
10
132
288
4
46
31
7
178
69
6
43
52
51
3
28
38
155
56
5
46
27
30
22
85
32
36
58
65
25
134
197
42
4
35
55
40
72
12
54
46
17
62
32
167
16
55
48
25
54
3
43
58
20
3
3
48
57
34
20
4
3
64
34
37
74
55
48
55
16
35
45
33
8
2
45
63
34
6
50
41
74
6
54
16
43
72
118
6
41
42
98
23
108
4
39
38
73
3
48
41
14
57
27
65
11
38
46
41
56
2
51
57
19
5
26
22
56
39
64
3
42
42
19
32
10
34
51
8
159
37
3
62
8
158
4
45
60
33
137
165
3
33
53
32
33
7
46
45
18
63
67
42
45
13
112
64
41
118
143
3
28
32
29
51
33
9
31
52
59
15
*****
56
10
95
123
73
166
157
31
2
49
30
24
71
74
59
73
74
5
48
58
133
67
34
138
62
68
59
11
55
145
66
63
26
57
33
12
28
87
26
54
76
12
134
124
27
29
107
62
64
51
7
13
4
31
67
54
3
56
7
161
5
55
46
14
80
72
5
37
65
55
18
37
42
42
22
3
42
48
38
38
34
114
14
45
24
30
35
86
171
5
42
41
132
59
33
204
146
35
49
42
65
14
21
79
241
29
7
78
13
137
157
4
57
51
44
157
95
3
4
56
40
93
30
15
52
3
99
40
44
28
19
72
4
42
52
136
61
42
79
29
39
74
3
34
2
92
7
2
3
161
4
56
57
21
37
176
42
60
34
62
3
27
28
22
53
62
58
99
13
5
27
28
33
41
42
72
69
5
27
27
16
55
3
9
65
85
35
3
51
17
38
224
50
94
43
65
80
52
57
3
6
6
53
37
34
3
9
50
21
2
25
18
43
13
102
46
177
48
3
56
3
112
4
53
34
48
22
181
105
80
35
49
37
65
6
13
57
3
70
70
54
60
36
37
82
4
48
18
41
149
22
2
7
47
67
71
58
26
59
133
45
2
48
61
25
22
3
40
45
101
40
37
101
60
5
51
18
3
44
38
60
44
49
*****
82
85
95
42
19
2
4
30
37
28
36
73
63
71
64
73
61
57
2
44
59
77
103
56
179
116
112
44
81
48
61
73
4
39
26
13
60
40
312
153
21
29
47
43
24
44
82
107
37
61
77
4
32
28
57
57
4
164
157
12
2
39
57
15
63
4
66
54
84
105
38
45
32
46
59
28
190
80
96
50
60
48
97
6
71
55
55
49
2
55
32
55
114
5
44
25
53
55
32
12
50
43
4
6
43
32
56
117
41
96
135
9
56
78
11
93
22
58
7
3
24
39
27
69
30
142
5
47
64
7
15
49
68
47
42
59
100
231
9
43
72
79
20
26
28
72
68
42
107
2
4
56
11
75
140
31
44
41
35
81
120
67
31
38
48
29
67
5
18
31
33
4
28
44
34
24
22
3
27
3
100
94
17
30
52
30
62
102
21
58
8
40
6
3
23
22
4
3
3
7
18
27
56
3
54
56
32
2
33
44
37
50
45
65
85
3
20
44
105
32
3
55
45
26
97
62
56
65
4
132
45
92
39
8
114
8
27
50
22
16
9
12
41
10
3
86
33
26
27
3
6
2
29
5
51
21
37
19
4
33
23
200
61
104
19
52
*****
4
7
26
213
245
254
202
19
41
3
40
68
60
69
79
49
55
62
91
82
5
41
26
2
44
25
38
37
36
35
19
165
16
41
43
26
37
97
28
16
30
52
24
7
61
30
51
185
58
5
32
38
18
44
4
43
47
4
51
6
7
54
21
58
31
32
3
3
7
26
20
39
32
44
17
8
45
41
9
178
53
6
56
93
3
4
4
63
6
3
69
29
21
51
33
12
12
4
54
13
18
33
144
91
42
35
8
48
2
32
81
24
268
153
92
3
52
58
55
114
2
28
40
66
40
17
24
17
15
43
56
132
253
83
4
13
50
47
143
16
17
15
61
71
3
139
169
3
60
44
4
43
58
75
54
15
197
42
3
70
62
108
6
38
29
33
3
112
11
96
26
55
50
61
94
5
101
51
38
61
15
121
2
17
28
138
46
65
38
9
54
36
37
15
36
7
4
4
20
153
132
34
15
63
4
33
68
97
118
13
45
44
4
79
2
17
60
3
44
41
22
3
2
52
29
4
3
43
60
15
27
26
44
54
24
35
62
7
17
53
90
94
42
56
56
6
3
63
33
149
20
*****
104
92
34
3
73
61
40
57
40
53
47
49
50
45
46
32
31
3
2
131
59
130
77
54
54
5
48
5
4
52
40
38
43
19
42
45
5
35
14
70
23
45
7
50
7
4
30
12
241
53
6
48
43
52
21
14
50
42
85
59
154
32
62
53
64
3
93
121
111
4
2
3
3
4
28
35
36
44
9
179
3
5
23
72
89
39
3
64
96
136
57
2
59
73
13
12
56
61
43
67
19
22
6
26
7
5
20
3
8
79
62
42
4
49
52
69
3
47
14
3
13
4
54
23
49
123
4
21
51
23
49
62
3
46
48
4
8
7
79
68
46
56
8
164
238
41
64
59
52
41
28
5
42
44
3
59
46
50
53
15
5
43
40
62
16
13
4
68
51
41
128
39
100
51
42
51
3
160
187
19
3
41
49
51
4
36
57
48
12
48
4
48
21
81
76
25
31
41
31
9
44
39
53
37
36
34
35
24
20
27
73
133
10
53
36
40
45
44
108
44
64
44
42
50
3
50
29
13
74
3
36
48
4
65
34
35
50
43
5
6
8
85
123
59
27
42
40
162
53
5
34
32
68
58
6
34
38
8
174
18
37
53
*****
24
44
50
9
3
27
3
10
28
7
100
108
3
162
3
110
42
41
50
54
3
166
69
5
67
53
52
62
14
58
39
60
72
114
22
29
38
31
66
113
65
190
3
51
43
64
103
70
109
94
4
35
68
25
116
20
145
38
5
47
3
101
50
29
46
3
85
3
36
45
78
193
30
80
40
59
58
38
69
5
2
45
32
31
30
11
57
11
21
44
43
74
3
3
43
3
13
18
50
38
34
37
3
58
59
2
40
58
54
51
102
3
17
36
29
2
17
32
49
40
200
57
94
69
8
64
67
40
19
4
3
81
2
13
34
77
126
53
56
42
64
73
37
168
214
4
66
51
46
76
82
36
40
3
51
154
52
4
44
43
4
53
61
56
152
83
6
4
56
8
86
56
49
41
87
77
34
35
11
16
5
45
46
34
133
86
34
3
42
76
85
45
99
4
9
18
35
40
46
48
54
101
192
109
3
45
48
39
121
48
2
54
49
45
64
8
41
44
5
137
56
22
50
56
87
25
78
97
63
75
44
12
154
46
40
51
42
65
50
83
91
63
48
85
25
162
4
59
60
24
40
306
4
46
42
38
106
77
18
3
31
16
82
71
55
44
68
91
12
26
12
49
57
56
5
3
4
55
20
48
56
34
31
144
4
46
52
38
3
119
4
12
66
56
83
3
52
52
19
110
111
59
38
49
34
19
43
31
70
36
37
60
44
28
3
44
46
66
67
3
5
5
25
13
59
44
9
49
57
54
125
10
16
17
12
14
47
78
200
29
102
29
38
45
9
120
58
98
10
64
73
43
164
111
19
4
54
47
2
13
39
3
30
154
3
43
52
75
17
91
51
50
43
22
4
13
44
19
17
42
5
51
43
128
37
6
30
34
3
7
53
4
5
27
36
58
85
34
4
19
53
3
22
40
39
12
5
13
32
44
18
69
106
4
67
55
5
92
49
48
73
64
*****
142
71
6
29
151
52
38
7
3
36
53
56
50
32
38
56
49
41
94
214
5
24
42
3
8
55
3
193
137
41
4
56
65
35
105
32
185
103
30
3
53
47
33
105
3
50
47
3
196
47
39
57
21
85
30
114
162
121
27
25
41
72
81
3
58
45
73
65
31
80
3
5
7
54
55
43
21
21
7
47
73
26
81
46
25
54
121
66
39
119
129
75
9
25
58
180
72
58
90
37
52
79
49
9
37
63
74
5
3
64
96
22
3
45
56
187
97
2
50
22
26
70
31
149
87
21
79
5
6
46
97
96
2
3
35
142
74
3
34
38
4
43
51
62
50
57
21
112
30
5
74
95
54
148
113
49
31
27
47
73
64
7
38
47
10
8
3
42
78
41
206
57
59
51
79
106
25
88
238
69
49
22
32
3
32
71
43
56
31
61
40
62
32
61
55
38
99
18
64
85
56
70
249
33
93
42
45
4
13
6
16
34
33
58
29
41
33
63
12
11
3
30
45
3
45
34
32
21
68
13
37
40
28
25
141
11
15
69
57
13
28
86
98
16
36
50
13
4
40
32
48
79
38
11
51
42
4
200
75
13
41
69
70
6
4
41
57
73
12
22
52
3
23
15
40
35
20
52
27
186
62
28
58
51
2
42
38
60
61
49
47
5
41
36
11
56
9
58
6
144
13
33
49
20
64
95
131
6
53
48
113
69
4
27
32
140
56
4
121
5
47
58
9
32
21
33
40
8
6
23
42
27
6
32
51
38
143
5
50
40
50
15
56
64
7
40
69
75
60
41
*****
51
52
37
44
4
3
64
3
79
109
84
22
3
24
40
54
60
70
47
10
89
5
45
26
2
51
32
45
62
25
133
19
18
4
5
11
36
65
60
31
61
43
91
44
43
32
84
85
3
5
56
44
57
46
5
73
16
52
52
36
4
4
27
73
29
210
33
33
43
55
65
42
17
39
27
3
4
36
62
39
29
119
23
3
60
52
46
99
5
49
32
13
76
17
55
46
3
125
12
2
46
5
64
44
41
54
74
6
56
63
44
132
75
49
16
31
52
58
5
46
31
68
69
44
121
136
42
32
9
52
142
4
17
28
44
7
117
4
53
38
81
34
5
33
8
47
129
37
41
50
5
57
3
55
47
174
2
6
15
29
18
205
6
46
42
44
41
3
13
41
99
75
4
54
80
80
117
49
138
5
29
83
2
89
35
70
50
32
224
197
5
60
40
48
60
4
48
45
61
188
30
159
153
222
61
10
9
41
22
4
43
47
49
136
89
5
55
55
77
69
38
102
4
62
63
3
77
40
52
52
95
190
150
26
15
27
3
5
99
54
48
5
75
19
76
41
33
118
38
21
55
41
49
73
11
107
132
24
5
68
51
142
34
16
49
51
48
76
5
31
28
34
89
25
32
65
78
80
14
23
107
17
13
38
33
81
26
42
39
33
33
76
11
17
8
50
72
8
50
37
44
43
79
156
98
46
55
55
43
176
11
5
63
61
73
9
58
54
59
116
63
57
11
3
9
73
22
57
25
37
2
40
48
43
38
59
45
55
47
65
84
58
130
166
225
98
89
19
84
82
9
4
53
58
62
4
64
61
38
50
4
28
67
143
86
123
42
102
123
32
32
25
39
66
12
17
4
37
42
23
104
181
83
4
39
45
76
3
55
66
52
3
53
70
43
74
57
80
26
63
36
13
7
37
47
35
97
6
52
22
51
3
31
52
3
4
33
48
64
3
31
47
13
3
3
44
40
9
90
40
3
83
81
10
54
44
66
30
105
3
45
47
41
46
34
27
65
45
64
47
77
10
50
49
4
27
30
58
50
4
117
186
132
4
16
47
37
4
65
40
58
16
13
30
54
32
95
2
16
40
47
2
144
14
70
43
47
52
13
187
108
34
*****
44
46
64
28
59
51
2
6
35
6
7
102
44
63
12
4
4
22
46
95
32
53
71
3
3
39
3
124
5
6
42
187
38
6
4
3
11
60
71
9
6
34
4
2
65
46
4
21
5
79
21
89
4
50
65
95
186
5
67
76
58
83
106
15
51
52
53
10
42
32
12
49
10
88
2
28
44
133
81
4
131
34
30
59
55
16
149
29
71
3
15
62
60
50
37
39
38
73
49
216
44
16
73
58
53
94
95
57
37
58
28
59
4
38
63
188
88
12
114
167
4
52
29
61
179
3
57
38
49
102
86
26
110
209
61
15
30
42
2
188
59
134
119
185
2
58
48
10
62
57
13
33
52
73
3
12
66
58
80
18
169
6
75
71
21
4
56
76
86
54
111
45
185
27
2
64
98
72
55
46
44
3
2
57
16
66
190
71
20
51
13
45
69
3
3
51
39
3
44
52
41
41
29
5
62
48
5
4
71
4
134
13
41
52
49
3
6
43
67
21
187
177
47
13
36
27
93
76
3
4
48
41
212
30
4
50
7
90
40
51
38
52
3
49
56
44
105
61
10
62
3
24
44
161
42
51
55
72
36
36
100
32
39
3
37
47
33
3
62
45
7
20
51
45
44
146
*****
7
46
67
51
79
76
73
73
61
56
65
61
62
39
20
6
42
3
3
32
39
233
74
20
46
106
83
48
60
52
94
10
54
25
49
16
62
5
58
21
45
6
25
35
35
4
200
4
55
52
7
188
18
52
36
4
32
6
38
47
32
44
15
46
4
13
13
45
35
52
97
53
12
2
36
59
4
69
53
45
14
20
30
57
38
3
7
36
67
54
5
31
66
33
13
30
4
63
4
76
4
26
62
33
85
6
4
9
60
38
53
74
108
6
53
37
7
176
5
53
53
70
70
3
71
56
61
16
3
58
4
71
41
67
45
65
53
90
27
40
49
17
65
12
37
36
9
63
2
52
53
90
55
5
7
117
81
43
50
31
39
3
179
7
34
53
5
81
56
38
47
15
2
41
22
47
73
119
74
138
14
70
70
17
47
164
3
52
66
45
121
36
116
2
5
141
68
37
33
2
57
75
8
88
65
87
76
22
19
4
49
72
46
9
41
33
34
63
52
6
2
85
4
18
64
3
45
43
56
37
6
18
50
8
30
5
3
41
27
3
67
70
97
48
23
23
16
63
145
106
34
9
42
50
9
5
43
48
14
100
97
6
62
23
*****
90
84
76
58
62
66
12
65
59
64
55
4
60
7
73
6
5
44
5
32
55
6
142
27
3
38
74
4
34
48
47
121
53
63
92
13
62
72
25
188
45
6
65
44
4
95
36
72
4
139
192
73
46
41
43
45
3
32
30
40
159
78
29
27
147
53
41
33
58
68
110
3
24
59
2
87
31
29
45
49
68
7
34
63
4
174
7
41
55
103
24
31
66
124
3
46
28
7
44
69
88
56
86
105
94
55
48
43
76
3
71
33
63
94
195
59
44
14
52
62
42
99
100
17
48
29
37
166
84
6
53
51
15
49
3
60
44
16
63
26
196
105
234
100
50
165
167
43
14
57
44
104
9
222
12
5
67
7
31
7
52
75
119
16
30
49
24
9
7
33
42
35
3
4
23
24
6
33
26
22
145
29
5
20
53
29
14
3
2
55
8
30
44
9
141
52
36
28
19
37
106
31
5
46
45
30
52
101
8
4
16
42
44
49
31
39
45
21
173
148
25
11
39
26
4
286
27
143
98
17
61
11
52
107
11
4
18
49
66
49
77
38
*****
2
51
40
51
26
52
45
51
52
35
36
23
9
5
26
16
7
11
79
39
51
3
159
182
149
58
59
20
50
55
2
65
45
52
71
16
99
59
44
65
34
27
116
34
11
49
51
3
92
11
61
50
117
77
4
35
49
68
70
50
121
43
119
38
3
47
103
82
29
157
84
4
61
12
29
7
42
47
12
13
10
42
55
3
193
217
38
19
49
53
45
54
21
85
3
5
108
42
114
23
31
52
6
57
4
18
64
36
133
117
87
24
44
35
8
123
3
28
39
4
249
47
6
37
38
46
2
58
57
78
73
39
53
54
40
85
57
164
156
162
134
69
37
100
38
46
16
55
47
6
54
73
46
104
13
59
4
4
91
3
48
50
159
94
9
53
34
127
97
19
103
186
43
35
47
50
4
108
36
208
36
21
59
54
38
100
13
5
27
51
249
102
19
45
220
73
58
56
38
16
55
145
74
13
70
43
41
33
107
74
4
54
65
139
88
3
6
39
5
41
56
49
39
104
51
5
52
54
45
5
40
50
44
48
31
4
48
70
78
53
3
45
39
39
92
13
44
43
62
16
61
100
56
48
58
19
48
124
22
15
34
46
18
41
15
85
5
53
47
66
4
44
22
32
5
25
44
11
32
5
43
50
4
72
43
17
58
*****
3
6
7
8
34
46
44
36
36
17
38
35
47
2
27
4
4
110
186
16
53
37
97
58
36
42
66
4
2
53
116
68
8
36
49
52
51
5
38
47
41
80
42
118
38
37
53
18
35
197
68
19
13
55
14
49
54
22
31
42
85
38
71
3
38
76
29
96
93
80
73
55
23
260
19
50
14
*****
58
59
64
56
49
47
49
59
33
33
12
21
97
14
103
36
5
62
5
27
10
26
9
53
34
178
52
16
221
94
43
46
31
59
101
71
10
97
41
47
55
35
244
32
234
29
40
38
11
63
25
6
37
8
28
29
45
41
4
126
4
46
47
3
87
50
34
29
5
18
34
35
48
18
147
10
83
50
38
60
41
71
7
3
9
46
25
47
48
16
27
26
44
28
41
4
21
36
41
15
102
8
22
65
65
37
26
26
58
57
9
43
4
25
33
31
73
15
45
44
5
71
43
31
52
3
44
53
14
40
7
3
55
107
28
10
122
108
16
5
40
50
128
5
38
47
44
23
40
3
40
35
5
97
49
27
64
42
11
14
42
35
58
41
55
224
39
31
55
3
3
43
50
51
3
34
48
4
28
27
35
42
3
156
38
20
4
32
3
7
59
52
19
337
22
4
61
69
70
3
49
45
177
50
5
51
48
101
65
57
12
112
134
11
5
22
26
86
30
30
24
20
64
39
58
34
4
4
8
44
46
*****
79
166
177
219
67
21
61
64
70
64
54
55
68
19
59
68
50
160
85
123
222
154
8
45
49
44
145
85
56
42
20
81
67
23
58
130
230
99
7
44
4
194
28
49
59
86
49
48
96
70
65
49
30
36
28
30
46
39
60
212
25
3
38
34
33
32
8
4
21
206
4
68
34
63
65
53
4
55
72
195
38
66
102
97
69
66
52
5
78
4
85
6
27
38
108
69
30
5
16
94
89
62
5
52
18
73
4
106
73
65
83
60
8
4
97
82
6
63
37
87
73
47
107
72
100
3
59
77
105
82
9
57
70
47
88
17
48
54
5
81
61
39
38
55
29
3
25
27
9
174
25
14
51
37
53
4
48
55
9
30
44
4
27
165
79
54
14
4
29
57
6
45
3
180
242
86
235
410
5
104
82
56
220
121
63
62
12
76
8
10
95
129
77
45
29
35
19
72
4
22
31
9
22
21
43
31
140
84
52
111
76
9
69
32
56
130
118
152
43
25
73
50
36
44
239
72
65
92
67
47
70
39
56
35
5
53
3
12
19
4
31
19
13
32
10
48
6
47
34
4
315
81
62
55
58
60
82
231
65
118
3
43
23
4
87
51
48
54
171
12
97
27
25
29
54
22
28
78
44
61
35
7
14
30
49
4
18
3
35
70
30
149
26
21
18
36
21
128
8
45
40
31
48
14
9
58
41
*****
56
62
44
49
4
22
81
192
185
150
189
65
35
14
61
82
65
89
90
70
4
32
50
57
71
41
32
52
93
64
43
73
60
204
86
17
20
69
80
28
156
133
61
19
32
41
43
67
7
55
48
26
85
215
4
50
54
96
48
165
204
80
3
46
51
142
86
4
56
76
90
88
91
106
5
59
46
40
88
69
45
68
29
33
250
40
6
34
43
39
16
26
30
34
26
8
4
3
22
4
71
88
37
115
210
19
30
52
45
4
130
4
36
42
76
65
3
54
29
14
46
124
53
4
65
53
80
304
195
211
5
66
96
94
79
4
74
41
37
72
80
4
49
16
3
47
30
29
3
8
49
24
30
185
208
17
287
127
387
107
70
49
45
77
3
157
180
4
52
9
47
105
4
57
40
78
113
64
79
14
43
77
66
15
143
151
98
66
75
72
35
132
52
33
55
32
64
54
57
5
23
27
4
34
132
68
42
7
7
3
13
110
2
83
53
69
60
7
76
47
91
97
20
9
57
78
72
24
3
17
44
45
121
*****
236
146
5
4
7
44
33
44
59
74
55
51
62
54
25
53
55
54
21
3
66
68
80
176
4
45
55
57
93
32
54
98
65
75
89
10
126
130
36
8
50
56
133
64
122
33
157
96
47
43
36
16
51
142
43
2
52
56
56
123
50
295
5
57
73
59
81
26
50
38
83
79
5
43
59
57
2
45
39
72
112
94
43
163
36
3
54
21
4
12
64
75
29
26
63
85
77
50
18
167
4
18
61
71
3
30
52
11
49
177
37
149
82
13
63
65
4
42
12
16
60
26
31
130
5
68
39
77
63
32
36
46
50
118
71
12
58
3
73
51
7
29
35
32
78
16
12
3
55
77
4
66
59
40
41
4
42
44
66
4
51
65
47
53
49
10
24
56
39
59
17
71
17
40
51
29
56
4
66
62
39
222
146
2
66
54
87
18
82
5
64
41
35
131
135
133
146
3
8
33
59
84
151
14
10
28
44
46
5
41
22
3
88
18
33
14
10
13
131
51
35
34
25
3
131
223
44
3
4
4
7
18
59
141
183
58
126
6
96
75
27
60
19
2
60
120
82
4
56
40
3
86
46
15
43
63
51
231
7
51
66
81
4
96
39
64
74
73
190
104
67
2
44
73
179
64
9
34
38
5
164
49
7
41
49
2
54
51
48
57
3
50
45
64
101
63
18
115
58
13
72
44
46
83
210
10
4
56
20
*****
98
142
191
209
48
85
24
77
78
83
63
94
87
85
73
72
72
22
195
171
56
17
4
37
4
51
64
4
25
248
170
16
3
10
141
94
210
18
181
84
55
68
30
32
61
70
3
46
49
51
5
27
35
78
42
3
27
67
6
131
59
19
39
22
97
96
107
77
85
93
49
84
331
43
7
48
63
127
67
65
186
54
6
63
57
141
73
51
58
67
31
42
15
2
52
52
30
100
49
102
182
92
2
48
65
83
171
44
70
55
79
81
35
71
17
63
82
46
35
134
25
5
54
40
208
97
21
181
53
87
87
3
146
214
6
81
91
84
138
71
23
139
129
89
60
45
41
4
112
72
110
69
48
46
29
52
94
151
64
24
60
8
136
80
137
42
3
61
24
16
134
230
5
34
41
109
61
5
14
34
5
15
3
65
70
3
3
77
42
21
24
38
48
20
21
38
82
43
38
31
6
219
14
27
43
5
68
3
42
31
22
19
16
29
38
8
183
40
19
38
9
21
3
46
53
68
22
71
38
52
99
55
178
37
23
33
55
4
94
49
4
56
13
202
103
67
33
31
32
38
34
53
111
52
54
58
50
71
212
43
15
38
56
20
48
23
138
99
29
48
37
45
114
32
21
6
30
132
60
3
4
35
108
53
4
15
*****
50
57
47
31
2
67
59
26
22
23
3
63
46
10
6
2
3
51
52
87
3
35
67
113
3
20
109
100
85
81
6
137
5
53
66
176
98
68
16
4
9
6
57
52
73
109
47
13
41
30
84
91
32
231
159
9
68
64
53
24
82
40
53
47
61
95
121
291
144
61
86
161
62
62
123
77
92
6
124
13
33
33
9
157
42
177
5
60
55
3
3
60
52
4
35
49
47
94
65
46
8
52
3
2
58
4
3
34
7
183
63
227
141
118
37
2
45
3
3
56
64
5
37
42
63
10
3
16
53
66
4
107
6
72
89
14
126
209
112
36
228
204
3
74
77
50
3
3
62
60
3
53
66
57
19
21
158
181
42
32
32
75
68
4
42
23
144
89
6
154
73
49
75
51
75
27
39
24
41
44
33
3
41
42
36
80
154
15
49
22
68
126
100
98
107
135
76
56
214
4
58
76
54
61
37
51
17
40
5
102
48
137
62
29
76
31
4
18
51
46
12
51
279
104
33
101
4
12
57
7
130
4
30
65
42
18
48
36
45
3
108
107
44
46
41
42
55
66
48
106
80
18
63
37
55
59
83
13
43
55
76
7
40
58
54
118
53
102
31
28
43
65
54
70
90
47
58
50
31
6
39
18
37
69
130
78
89
174
43
81
*****
148
109
39
72
118
55
99
4
16
62
81
59
47
69
84
81
8
260
65
4
95
115
129
37
12
193
261
129
39
18
67
92
68
87
62
66
25
48
88
130
131
31
38
144
87
41
75
70
4
233
5
58
92
8
295
5
72
65
164
107
40
31
262
130
3
68
53
67
56
69
225
48
70
91
83
4
108
270
3
71
68
145
77
2
60
66
8
85
62
77
83
17
52
6
72
52
2
258
40
4
62
182
105
59
86
206
31
42
39
68
3
77
12
72
77
40
76
4
76
78
3
321
12
68
62
3
34
22
67
61
87
73
60
202
160
121
123
68
66
89
92
46
45
203
16
68
56
55
82
116
5
73
2
94
78
52
82
61
88
87
82
199
331
20
5
57
78
294
116
13
11
96
6
99
4
81
76
117
114
38
73
125
105
87
63
355
34
30
58
56
48
22
182
22
115
109
95
3
55
18
72
26
42
54
11
74
33
89
47
67
97
35
24
42
78
58
64
73
35
150
49
11
57
71
101
28
56
151
*****
80
73
66
51
63
37
61
37
56
56
39
5
3
6
4
16
157
198
16
68
3
33
64
86
2
77
82
45
59
35
25
50
52
5
140
46
44
3
39
58
178
126
127
21
3
33
46
3
162
9
31
75
43
3
75
57
64
158
85
46
124
25
61
68
4
38
92
62
82
39
13
114
3
78
58
63
10
106
82
131
153
112
120
5
46
66
77
4
53
49
47
62
22
70
4
31
70
87
65
17
72
75
16
104
96
37
4
5
30
5
39
72
4
18
64
41
91
46
95
18
67
77
38
43
23
66
68
56
20
218
96
29
4
72
18
2
62
59
27
3
5
51
4
84
10
71
65
4
3
65
91
140
108
58
148
3
61
56
52
202
103
63
35
26
41
68
23
56
45
110
3
46
43
33
21
21
3
56
109
87
18
67
8
44
90
114
72
164
55
49
48
58
104
70
144
4
110
99
74
85
63
106
65
84
152
263
241
151
26
121
247
7
80
65
96
72
92
62
49
36
64
86
191
161
13
6
21
56
80
89
14
46
36
5
63
11
26
46
44
41
4
57
64
40
155
296
4
41
64
72
32
6
24
59
69
29
83
8
19
46
149
157
54
133
58
51
5
19
3
6
58
4
31
54
57
18
6
7
7
45
6
38
37
104
63
70
169
*****
110
149
60
86
6
77
66
24
91
67
70
73
65
8
72
70
53
70
63
28
41
113
68
3
53
3
233
4
41
73
94
145
27
128
161
87
4
69
86
88
220
3
58
59
95
113
27
118
123
49
122
222
88
3
100
31
82
5
48
89
39
78
251
52
3
71
67
177
98
20
258
155
258
6
69
68
28
4
6
31
74
103
50
48
55
41
90
99
4
9
61
69
18
32
49
56
3
81
6
51
49
125
28
3
28
46
102
93
2
3
52
52
91
51
46
61
6
143
27
74
44
72
75
68
156
72
202
37
31
59
72
69
171
51
169
13
63
47
48
20
77
139
120
191
60
4
65
71
97
44
3
35
64
155
70
17
97
6
30
3
3
40
77
147
65
3
56
79
167
94
2
46
43
52
103
4
220
247
79
8
64
82
167
39
62
26
37
100
81
137
89
10
45
20
58
51
38
78
98
46
7
3
185
92
171
31
38
69
34
36
201
11
16
45
16
54
63
26
155
120
102
148
8
57
68
77
41
37
84
60
63
5
*****
17
90
17
179
36
10
3
4
62
44
77
67
61
72
77
59
72
71
18
149
223
101
7
54
55
33
3
45
49
48
53
2
43
56
69
88
10
62
30
36
9
109
50
59
2
42
56
17
159
59
64
78
51
61
99
194
19
18
38
70
76
3
45
44
32
35
34
132
6
91
92
21
71
99
49
53
19
61
173
38
22
50
43
28
99
3
40
50
44
76
3
19
53
26
50
3
54
61
66
4
61
65
48
93
66
28
37
58
38
67
13
108
8
41
86
5
12
50
87
89
54
135
192
8
76
59
64
97
31
2
56
77
93
3
50
17
71
33
98
32
53
63
4
155
15
40
61
105
66
28
12
62
50
65
33
59
41
160
25
63
63
84
45
4
48
67
79
82
12
74
52
28
76
27
60
75
22
75
38
48
88
103
45
56
73
46
67
33
140
211
82
82
63
59
64
85
89
65
39
91
102
78
5
93
61
77
3
152
262
11
37
49
59
30
39
47
7
55
20
24
58
69
49
29
70
3
17
56
3
*****
5
4
4
49
11
187
194
141
104
3
81
41
28
64
30
41
29
52
73
3
50
57
43
84
17
69
2
33
72
46
93
2
19
3
8
20
51
58
91
5
5
130
177
9
53
29
42
68
195
3
36
40
2
50
3
36
45
182
20
15
14
39
18
72
70
236
186
58
3
46
64
10
37
4
59
69
28
153
31
200
51
64
74
4
56
113
11
68
81
86
137
93
159
73
30
77
82
55
34
50
192
46
2
41
20
7
46
18
21
70
11
4
54
27
34
22
3
64
59
75
116
19
58
60
23
83
22
173
127
33
47
44
32
3
58
60
53
62
93
4
80
38
65
10
14
7
52
34
44
3
48
37
69
113
70
167
8
46
78
97
32
2
51
23
94
52
116
153
45
35
62
38
38
47
29
83
52
65
53
2
92
39
39
83
3
164
107
62
63
62
35
69
53
3
52
65
157
63
94
266
166
158
140
161
8
51
66
58
23
137
78
3
20
45
102
94
16
62
3
78
88
84
29
54
76
76
5
2
50
75
36
5
18
51
31
3
53
69
76
92
183
4
64
60
16
36
*****
113
104
104
104
90
81
72
82
85
72
55
64
2
44
30
121
134
171
175
36
59
65
72
51
50
78
35
46
95
70
60
76
135
156
35
5
52
23
57
55
42
29
32
58
24
105
107
221
32
159
105
141
6
70
60
20
7
57
40
51
54
61
51
5
64
5
20
64
12
50
133
39
94
125
37
64
72
23
31
157
34
3
52
48
217
74
43
125
149
175
31
147
136
245
46
3
64
61
75
4
53
61
37
132
46
272
4
94
81
36
28
65
29
68
34
67
26
111
2
36
61
94
164
10
3
42
97
50
90
74
28
84
90
46
57
46
59
54
19
25
97
123
72
46
51
3
107
155
59
102
144
3
61
48
33
51
4
47
36
73
18
22
27
48
57
58
85
36
18
63
83
8
201
58
72
84
14
72
129
61
31
66
48
115
99
4
94
4
77
95
177
41
66
13
59
4
17
17
83
89
5
55
4
68
70
3
47
66
8
83
3
71
49
35
167
21
100
11
51
51
8
157
12
7
7
52
75
2
25
67
28
10
3
8
130
142
5
41
35
64
36
56
45
39
53
16
59
224
50
27
31
52
17
53
20
125
3
44
68
27
54
39
46
74
4
207
162
2
17
65
49
28
48
4
49
63
4
5
60
51
89
65
63
55
3
83
4
52
51
59
249
102
10
121
182
95
48
62
44
59
79
180
91
96
61
55
89
3
3
46
24
17
12
56
*****
132
42
74
17
50
81
64
83
88
77
19
163
153
26
128
63
16
7
38
77
34
128
54
50
54
52
5
22
53
55
47
83
4
57
39
24
56
19
13
40
38
65
7
49
39
46
79
40
203
155
23
10
71
55
68
83
143
70
94
57
59
40
61
83
207
4
51
34
94
40
37
35
55
47
84
125
46
110
166
36
177
2
88
84
28
237
65
96
15
43
41
4
55
57
54
41
107
43
17
43
33
74
64
46
4
57
26
60
45
281
241
50
2
45
52
7
13
61
70
72
208
96
102
62
108
130
49
2
29
88
72
43
37
58
50
84
3
29
70
10
77
15
65
41
66
87
3
3
48
30
24
4
66
16
75
89
5
62
59
16
233
45
215
110
14
5
41
90
105
4
7
2
44
109
90
75
61
75
87
86
54
62
67
13
17
70
87
53
48
*****
45
47
28
63
9
3
2
4
4
47
85
159
160
162
128
8
137
63
168
55
42
62
69
100
29
13
89
73
92
30
57
86
204
109
134
159
3
81
40
63
135
25
54
91
28
51
54
53
114
3
47
61
73
6
55
65
62
12
20
161
52
3
37
75
65
82
21
46
55
128
66
27
25
64
113
55
65
63
84
15
49
47
63
4
81
48
64
45
3
35
21
53
54
107
73
68
109
139
10
12
65
41
30
48
28
139
144
144
67
26
17
96
85
4
15
59
82
90
32
226
217
56
44
52
36
11
73
29
75
43
85
94
22
59
79
80
69
51
76
26
192
4
52
50
92
100
88
114
70
4
108
4
9
38
62
89
75
104
100
2
47
55
74
38
12
23
24
45
59
101
4
141
100
186
4
55
26
224
92
4
41
61
54
91
178
65
210
110
80
114
116
264
97
4
64
204
90
3
19
50
42
70
47
72
33
48
76
48
14
119
156
117
90
4
83
72
16
123
81
46
3
15
*****
40
49
4
26
27
33
37
33
4
43
13
29
53
82
106
14
68
69
20
43
3
83
8
18
44
5
58
30
36
26
95
98
37
22
61
3
4
41
4
130
38
57
51
6
8
52
54
38
117
69
77
75
42
53
63
19
5
5
4
83
36
10
60
4
88
39
53
69
3
83
53
60
60
50
20
4
13
53
89
114
10
56
46
52
55
8
38
19
47
39
4
31
54
56
92
105
50
117
211
12
94
33
65
69
14
150
180
21
44
28
55
4
125
84
150
5
61
65
6
44
55
63
79
91
28
85
68
75
3
206
136
55
63
52
78
61
59
168
100
81
111
35
90
51
54
45
4
38
32
22
67
18
125
338
252
52
18
46
67
52
11
75
11
65
46
3
103
16
127
65
36
51
16
82
3
55
40
13
3
33
32
67
35
23
29
3
54
128
60
28
195
89
128
58
62
56
13
70
250
81
88
80
84
64
67
70
87
75
76
64
22
50
33
51
48
77
77
8
50
55
77
22
80
142
4
77
88
5
62
37
59
78
45
3
35
37
80
52
151
165
146
48
126
105
18
4
38
76
116
12
20
9
59
136
107
38
87
334
18
2
46
69
64
31
52
56
17
37
10
2
64
11
173
91
66
43
121
194
3
31
68
20
4
69
33
74
68
79
21
6
4
145
166
73
2
69
111
95
28
167
261
21
4
42
66
85
174
121
26
89
43
88
11
63
180
16
10
64
34
18
85
76
128
171
103
75
146
124
228
5
67
66
33
126
*****
48
42
56
14
8
126
109
146
220
145
51
2
8
29
39
69
52
21
49
78
3
4
36
6
15
31
61
49
64
117
20
30
3
58
77
42
256
3
64
40
6
73
56
68
65
44
15
3
53
84
37
164
167
5
65
58
77
104
26
55
67
46
48
89
26
138
244
30
2
34
56
2
111
4
61
19
94
30
31
21
54
23
69
15
34
35
68
85
5
7
68
60
63
4
41
69
161
45
52
29
4
30
58
161
36
29
61
61
3
8
35
55
85
3
56
46
85
78
54
159
103
192
28
148
74
37
64
4
128
9
65
81
3
106
230
57
38
58
69
34
122
5
134
18
30
69
42
70
38
113
157
172
198
94
38
63
71
12
75
5
38
52
3
46
3
3
9
11
54
60
3
7
51
3
6
36
3
130
5
34
43
30
130
80
133
58
39
25
50
52
14
27
54
32
68
42
58
122
5
39
45
48
64
3
60
21
55
6
26
49
19
35
127
3
28
36
37
32
60
12
44
38
44
60
11
50
8
3
52
5
50
22
12
75
21
32
53
6
103
26
37
56
69
62
4
40
50
3
46
22
25
53
72
5
46
55
55
35
38
77
3
30
8
139
17
18
62
45
65
40
15
17
72
57
19
11
5
72
73
3
97
57
31
60
45
152
171
3
53
31
59
76
4
35
22
61
47
209
*****
35
41
29
48
89
70
186
116
152
29
50
20
47
6
43
50
47
45
66
32
70
53
20
44
44
13
7
136
76
38
44
55
26
131
5
40
57
4
135
45
23
25
28
64
38
133
185
59
74
54
51
28
85
3
60
39
56
94
81
60
34
97
83
20
9
42
82
66
3
5
53
17
5
53
42
54
99
115
138
100
30
204
109
51
5
36
92
54
107
241
51
17
49
48
10
91
5
49
39
57
71
174
3
56
68
71
43
15
30
44
63
12
22
214
4
62
50
49
24
101
25
102
41
40
64
11
59
119
67
4
42
58
41
81
54
52
56
58
104
6
190
84
29
63
66
6
76
61
65
34
5
59
50
75
7
241
182
12
42
65
28
3
148
19
76
13
60
82
17
229
13
78
5
5
140
228
82
9
74
55
16
11
16
63
49
28
58
8
57
38
34
66
65
5
38
78
3
4
36
3
71
76
79
26
86
96
19
80
40
71
142
4
39
64
51
33
3
39
35
60
115
90
29
221
156
150
54
55
36
43
60
29
44
3
81
94
8
4
44
144
93
11
117
235
77
3
77
68
56
123
28
122
106
77
62
52
48
31
11
92
31
40
36
77
60
223
60
4
81
14
3
30
63
67
26
92
99
41
48
24
17
118
3
36
22
12
74
122
11
278
22
50
66
47
35
5
58
53
3
62
98
52
45
30
60
96
15
57
52
44
72
100
95
106
9
54
39
48
3
38
56
68
18
224
158
48
30
47
55
61
73
55
37
42
51
34
25
91
92
54
40
32
38
116
39
4
57
36
177
62
58
110
37
3
74
4
84
32
38
54
11
31
27
39
59
34
10
*****
20
25
6
17
7
25
64
7
32
51
64
44
7
230
141
156
144
125
6
39
43
11
4
49
46
63
84
96
29
44
61
42
70
89
59
44
69
91
28
42
38
86
98
2
94
3
3
165
31
42
3
3
17
37
49
35
12
23
88
228
45
74
79
45
39
155
66
57
75
56
41
112
36
5
54
39
88
5
73
54
40
69
39
4
44
88
71
3
4
58
45
50
4
24
58
90
190
94
163
50
65
66
3
190
252
3
39
32
60
71
4
69
75
68
98
25
4
55
73
121
89
124
17
94
37
69
5
38
59
58
78
61
48
214
37
6
2
32
84
48
73
23
90
174
3
29
60
63
2
64
69
74
22
7
3
85
32
29
81
29
70
77
4
36
75
75
6
95
89
39
66
2
162
175
60
3
56
56
274
101
4
122
2
72
56
32
214
63
134
17
32
40
26
101
12
6
17
70
80
20
5
5
85
56
74
111
225
154
37
3
58
14
76
27
43
57
3
3
74
15
74
93
141
183
26
65
74
95
3
3
65
88
92
3
12
46
53
92
49
207
54
4
62
12
8
37
46
52
26
2
42
51
81
4
3
47
9
221
25
32
46
9
9
50
47
59
41
6
67
34
79
42
13
17
56
51
19
27
25
20
55
4
63
2
42
49
42
179
82
82
28
32
54
14
49
73
29
40
38
14
81
89
54
24
51
19
19
6
49
53
79
156
37
140
9
59
69
6
55
*****
11
16
5
87
93
166
180
32
129
104
38
14
6
2
19
6
35
68
19
134
56
98
53
60
14
49
111
59
6
50
56
55
58
7
40
60
5
37
66
49
64
92
45
58
55
63
3
91
23
26
50
85
7
45
54
64
116
89
104
5
66
64
86
19
48
130
69
49
31
52
79
16
11
20
29
40
56
63
91
60
69
62
52
104
113
6
7
33
66
238
64
4
69
66
92
17
38
30
41
23
87
31
109
164
66
33
54
34
8
40
41
32
34
97
3
42
42
28
51
45
3
42
59
103
37
117
15
76
53
68
23
56
68
146
49
40
32
20
81
78
39
56
101
104
68
96
3
170
66
205
20
50
64
3
18
171
80
67
56
36
73
63
19
56
49
11
50
7
56
52
7
76
5
67
54
46
3
61
12
52
57
128
8
64
3
111
41
3
56
30
127
62
54
168
22
62
79
3
114
232
50
32
51
41
12
75
40
243
95
19
87
5
18
11
89
84
63
29
91
70
65
51
38
58
51
60
11
60
28
82
8
35
75
22
28
57
114
32
80
91
57
19
231
61
4
37
44
44
83
6
30
43
21
5
33
9
16
3
57
57
3
6
46
26
4
34
4
50
119
7
46
5
5
2
44
12
136
27
3
87
72
58
33
2
37
43
4
21
40
5
41
51
55
29
3
150
53
99
47
80
82
78
77
45
80
59
7
86
32
71
63
23
4
25
65
66
3
49
45
67
67
41
3
28
58
64
88
51
42
50
67
24
46
288
97
28
6
75
52
74
10
37
54
49
33
59
74
29
39
79
44
17
37
60
73
54
32
192
5
57
*****
3
3
80
6
3
4
62
48
41
33
44
41
31
54
64
11
137
295
98
4
68
57
22
42
28
37
47
3
38
38
36
31
57
12
13
30
35
28
73
8
8
52
54
89
35
35
31
3
79
5
6
77
56
44
61
10
55
131
55
18
39
44
21
71
4
43
44
40
58
102
13
65
38
70
12
66
104
3
49
37
36
24
64
3
23
64
18
167
37
66
31
47
42
38
56
8
28
80
50
21
5
65
56
32
166
150
78
9
68
69
3
5
79
39
5
48
70
77
24
124
31
86
53
46
47
48
128
3
35
34
40
65
5
57
48
85
3
28
55
24
62
57
3
38
57
41
163
20
51
27
57
57
59
69
8
41
45
51
151
70
117
26
4
47
67
12
78
26
50
71
78
111
58
5
69
84
46
35
64
76
67
46
17
134
42
30
68
44
196
79
77
108
183
4
8
68
89
71
180
54
21
32
60
95
3
64
37
6
49
4
64
69
84
49
39
39
49
17
9
9
40
53
90
192
25
18
35
9
127
7
58
48
14
60
92
54
3
24
23
165
28
35
88
63
35
39
50
83
42
44
72
233
25
90
175
171
69
33
54
76
87
70
27
19
60
91
80
61
153
199
5
49
57
72
31
99
54
51
45
65
74
5
44
55
85
9
17
57
46
153
73
3
35
60
79
90
4
39
69
14
25
95
290
72
64
79
46
73
163
7
79
50
64
227
53
21
176
31
53
87
76
97
158
89
6
74
84
25
102
21
127
337
76
21
51
44
48
60
5
33
39
90
4
4
43
61
11
4
47
27
4
3
48
4
33
24
38
4
96
104
48
58
54
70
17
208
37
154
14
12
69
76
68
11
151
104
35
18
24
36
13
10
190
63
3
43
61
8
83
52
56
92
33
188
190
106
15
138
105
54
18
69
15
4
38
4
56
44
173
51
3
60
56
115
58
3
46
64
7
63
51
52
70
48
88
8
48
43
17
97
18
18
26
44
60
28
179
127
9
54
40
53
52
180
91
4
59
71
3
54
48
36
196
97
2
35
56
11
70
77
77
6
3
151
109
15
58
36
*****
3
15
2
4
32
30
4
2
50
33
5
5
6
41
45
50
29
46
64
48
77
154
106
65
13
88
48
69
37
70
98
79
5
17
42
157
3
47
37
48
89
45
56
24
44
144
111
65
117
194
132
39
95
109
56
6
63
63
43
8
76
47
82
172
74
37
164
20
18
53
36
22
191
3
4
63
55
197
5
61
19
55
46
47
36
27
22
62
7
24
45
62
39
38
6
58
59
40
89
46
5
49
50
8
41
61
70
116
85
27
135
52
92
98
71
71
200
144
3
4
51
233
80
99
176
317
17
6
63
44
126
44
13
77
28
41
76
4
17
40
61
70
39
8
63
72
56
24
8
27
33
35
74
100
128
189
8
68
63
177
86
4
49
4
160
81
5
31
44
84
54
16
112
91
63
66
51
54
217
106
3
3
63
34
76
79
27
59
32
64
73
65
12
72
82
31
5
33
65
79
49
32
29
50
57
14
46
143
24
4
52
57
3
3
44
4
72
3
39
3
17
67
23
18
34
5
29
62
58
4
45
45
38
30
181
198
3
4
50
33
5
17
44
5
140
4
52
32
4
107
66
28
44
4
94
38
39
32
19
26
44
89
37
80
84
4
4
61
96
62
4
41
47
45
3
46
34
50
3
3
58
6
47
33
29
73
4
4
39
51
3
44
51
57
63
15
22
47
55
22
3
32
32
*****
35
34
42
21
21
42
114
71
169
151
225
201
105
62
85
37
4
57
64
91
3
9
191
14
160
273
74
77
89
74
269
151
42
88
186
22
31
48
67
12
53
108
3
38
54
71
5
116
147
195
5
73
63
10
4
47
40
56
141
43
28
72
34
66
64
46
4
34
72
66
37
141
72
72
56
68
57
106
75
20
180
74
7
56
20
126
38
11
40
62
57
74
10
70
33
42
69
73
68
120
178
5
75
51
63
95
96
19
45
51
3
155
10
6
63
191
90
11
168
148
40
47
58
64
74
68
76
24
46
70
72
24
181
208
80
40
40
61
75
59
4
54
53
17
75
6
51
46
104
73
45
146
137
20
8
33
66
83
27
13
49
34
3
4
59
45
45
2
37
49
40
71
137
82
3
36
67
41
40
22
21
36
28
43
3
49
63
3
184
131
2
32
85
83
2
3
63
27
57
3
59
67
20
64
41
58
53
88
78
142
6
4
43
91
101
13
22
60
72
5
4
39
107
49
5
60
72
47
43
14
42
52
54
61
8
5
41
24
57
7
3
25
57
38
14
7
25
47
22
3
37
*****
172
63
72
130
66
74
49
83
155
55
40
99
72
54
91
73
42
101
8
282
239
3
111
66
54
73
60
3
53
45
27
53
19
12
30
32
46
3
39
10
35
83
70
94
3
30
61
14
192
158
49
45
48
54
109
87
44
143
169
33
20
70
73
21
22
98
156
75
26
86
36
74
110
86
3
70
67
142
86
92
160
139
11
28
42
72
50
72
62
38
11
84
97
4
3
72
116
109
4
233
262
33
48
51
55
101
97
4
93
7
28
48
98
49
59
37
88
51
80
89
72
88
29
38
91
84
73
60
72
175
12
106
91
4
87
87
7
3
47
15
39
4
67
61
206
110
17
54
180
121
17
83
44
92
107
42
28
155
5
84
53
54
182
41
4
59
74
34
94
40
2
78
55
68
4
83
54
88
103
89
76
144
91
81
42
90
87
108
146
47
52
72
74
63
55
150
3
33
63
70
44
42
3
55
81
16
4
59
6
22
4
32
55
10
3
39
37
56
39
40
68
48
51
13
5
6
31
42
3
13
54
70
72
128
26
4
32
77
25
90
56
61
62
3
33
3
36
65
12
129
10
10
44
3
17
4
48
68
2
156
44
69
77
48
11
155
11
84
53
59
27
71
35
2
17
7
87
34
19
56
41
51
4
39
39
86
37
4
17
53
139
64
87
227
45
27
44
26
26
24
202
15
5
66
4
177
2
49
56
137
68
16
36
10
36
78
56
14
7
45
81
4
3
*****
3
4
5
54
53
28
57
65
21
61
38
5
97
106
165
142
118
43
26
62
90
16
82
140
223
39
131
114
235
24
36
51
100
87
25
19
177
12
39
55
79
32
63
146
61
10
85
77
4
90
86
85
67
38
46
95
166
33
60
57
6
67
46
70
60
75
52
74
92
47
89
93
74
185
292
52
5
46
66
19
123
144
3
4
4
204
156
99
83
82
59
50
86
296
48
52
59
72
27
69
6
58
65
79
16
41
122
100
199
8
42
76
43
21
3
65
63
33
97
57
38
64
12
93
84
108
8
60
80
11
42
110
251
3
63
61
88
20
28
52
69
34
88
38
122
149
4
85
56
62
179
39
54
17
58
98
88
15
82
22
86
84
26
70
86
37
79
3
2
41
80
127
67
88
190
79
3
67
49
159
93
13
46
4
15
89
146
18
176
254
128
25
223
128
48
5
85
124
118
36
65
206
154
73
79
4
24
39
114
35
65
86
100
70
94
62
4
80
44
39
58
128
4
72
54
38
10
48
113
218
46
39
58
69
162
92
40
237
201
145
19
77
37
107
112
69
107
102
118
61
70
66
34
4
74
76
115
29
4
58
74
74
82
15
43
8
30
51
9
36
45
158
110
5
271
384
63
73
66
87
50
41
76
122
105
204
7
67
32
243
114
3
321
256
2
110
92
80
69
136
24
7
4
*****
64
43
2
3
9
77
4
6
7
24
4
42
44
3
46
32
54
22
42
44
49
4
85
53
53
38
124
28
23
179
13
24
34
29
12
90
291
3
48
59
25
41
3
34
83
102
82
58
4
52
132
63
38
62
51
38
60
40
32
163
4
39
35
35
118
69
39
35
13
70
64
48
184
162
4
37
64
45
85
110
36
105
173
120
52
82
4
57
44
13
10
46
76
72
18
153
137
53
30
57
54
61
62
10
52
5
83
23
73
194
4
66
88
40
163
258
91
50
43
39
75
62
44
128
37
2
35
3
135
46
44
43
65
31
143
76
11
52
36
30
79
7
21
55
34
60
7
25
61
150
86
34
43
64
43
54
5
23
51
55
75
31
37
53
58
60
55
20
17
207
3
32
47
93
4
48
61
53
18
27
4
46
59
134
62
21
5
47
5
63
6
24
55
2
67
66
4
145
109
55
7
52
46
184
105
48
90
54
51
71
9
36
111
128
148
80
99
51
98
45
40
169
35
2
54
60
44
76
28
28
44
30
4
21
37
49
28
13
7
49
80
75
72
15
47
60
4
38
6
36
38
98
136
26
19
48
38
62
35
189
51
90
19
46
24
37
18
3
52
44
73
94
20
3
48
100
53
88
43
61
48
76
5
5
53
4
146
2
4
43
45
12
16
24
55
4
51
57
4
189
109
35
17
11
36
48
58
4
57
41
61
47
35
137
97
29
60
48
36
162
70
3
59
71
41
3
32
33
34
118
68
3
33
42
147
55
36
46
7
40
46
38
46
4
70
56
4
22
45
4
6
46
46
44
171
66
52
133
3
55
56
10
19
14
43
51
2
161
100
26
45
50
45
9
45
36
52
31
35
6
3
46
43
9
42
51
3
86
5
15
65
5
36
51
2
19
5
36
37
57
*****
45
69
29
43
54
59
70
140
37
106
3
64
84
36
48
22
60
72
3
19
37
65
68
3
2
55
10
29
3
54
52
8
87
41
44
20
122
54
5
54
35
38
31
54
26
50
45
73
2
53
54
31
82
3
43
44
4
118
84
64
5
61
51
40
3
32
127
49
83
76
20
57
58
34
4
58
67
80
5
222
8
56
58
26
5
24
65
92
90
14
2
66
59
3
27
72
26
73
5
28
50
3
79
11
49
43
14
2
20
12
39
5
163
45
55
56
89
56
5
61
58
8
120
120
76
109
67
32
47
53
56
16
15
4
61
76
122
48
71
16
62
69
7
77
14
71
81
36
160
12
7
33
45
24
147
3
46
59
54
83
98
3
72
58
5
79
75
32
38
59
157
15
3
61
29
3
38
62
52
96
39
56
46
55
5
150
114
2
66
75
75
35
213
117
73
29
19
28
8
4
53
42
77
141
49
51
190
3
46
62
49
64
64
56
66
65
18
128
7
62
61
65
133
83
28
106
76
78
54
45
89
86
3
86
87
40
78
71
44
35
41
63
27
16
35
48
51
33
4
33
10
32
16
4
45
35
15
19
34
45
41
29
71
47
38
6
4
165
105
6
29
58
74
16
87
47
31
65
19
34
212
16
20
30
46
3
35
46
40
47
4
83
3
*****
17
24
3
63
36
93
66
50
66
42
62
30
55
35
67
24
66
97
75
3
94
47
53
91
22
41
111
213
13
21
59
7
41
9
49
51
28
202
104
35
4
47
55
2
41
38
41
97
26
139
300
37
33
76
56
59
83
40
33
29
91
49
9
150
97
37
53
64
30
6
52
37
3
25
9
85
96
60
48
20
53
68
28
76
17
44
85
20
38
125
12
29
45
55
58
68
43
105
62
6
84
59
3
40
112
78
46
68
267
72
48
29
54
17
72
97
102
167
24
15
63
48
33
32
26
143
95
83
82
55
5
126
6
88
32
34
204
23
4
2
134
89
101
148
14
133
157
4
27
58
171
88
2
53
3
124
98
20
125
132
8
80
55
77
112
53
3
28
58
144
91
146
40
291
53
43
64
68
47
93
29
61
52
73
94
47
4
62
90
88
17
160
227
2
79
52
63
3
81
57
59
68
105
54
122
46
3
42
64
4
51
4
131
78
4
9
73
11
11
2
46
57
16
3
47
14
79
77
57
5
2
96
96
86
79
24
19
134
32
34
50
56
7
49
4
5
5
4
73
44
13
69
50
30
65
4
6
46
160
55
8
50
25
20
56
5
58
37
48
33
99
125
18
85
64
54
72
130
4
61
59
66
55
38
36
61
60
48
48
136
46
5
54
61
28
6
71
63
65
3
56
52
60
63
35
149
156
12
4
53
25
11
88
4
3
41
43
52
56
5
123
94
145
52
41
56
2
21
25
49
46
3
124
47
69
40
33
64
7
18
37
60
70
3
40
39
25
73
8
48
37
134
72
30
12
60
40
44
26
15
3
58
71
25
3
*****
79
123
44
71
4
64
69
47
56
64
50
28
40
46
52
61
7
7
128
4
71
62
63
41
20
32
56
59
8
85
49
47
28
41
11
170
3
73
93
110
3
116
250
3
42
50
55
129
66
67
197
119
123
26
97
58
78
68
19
105
152
51
4
44
72
3
2
34
48
3
11
60
67
4
197
162
211
27
3
78
58
45
36
53
70
3
28
65
70
23
63
72
63
105
42
26
49
58
49
22
94
25
48
37
2
41
44
31
54
34
42
21
43
41
59
66
54
6
57
113
71
60
5
59
51
81
115
5
2
65
91
3
82
63
53
58
57
160
98
77
90
4
75
43
74
87
36
4
20
66
87
2
111
178
65
10
45
43
22
28
3
37
39
6
106
11
8
38
24
101
29
214
121
144
84
22
53
52
49
3
94
44
18
62
40
74
4
38
34
19
112
88
47
58
44
61
165
46
51
4
42
88
85
3
63
54
31
25
42
27
37
31
52
4
34
39
3
148
198
103
174
3
51
49
74
28
129
7
4
50
57
52
28
41
38
6
147
140
3
3
7
72
3
8
161
15
122
26
44
39
34
72
13
93
11
63
49
16
*****
6
58
157
167
50
8
3
5
24
32
57
23
68
47
42
49
62
29
22
26
66
4
81
96
20
72
3
176
305
39
12
74
64
6
7
66
43
51
91
108
53
109
122
158
22
26
47
5
31
20
53
61
46
46
2
50
52
54
32
51
114
122
117
3
79
71
101
121
32
52
238
142
25
189
119
54
54
37
62
4
56
24
46
25
102
83
4
31
49
64
56
31
95
8
129
85
65
105
129
97
4
61
66
155
67
8
36
46
41
103
25
103
12
93
71
61
47
31
41
17
138
157
107
9
16
69
80
41
9
48
45
79
4
71
65
43
57
195
102
118
195
5
24
39
59
84
34
55
20
42
4
8
63
42
50
70
171
3
38
37
12
33
2
54
43
62
55
21
43
44
60
92
6
41
56
16
60
17
159
48
46
51
50
32
120
27
13
33
24
9
70
112
232
237
59
15
73
52
5
98
47
65
62
47
2
53
55
52
12
4
38
38
49
3
4
60
14
4
52
56
56
16
18
142
149
7
29
51
30
5
43
34
49
3
2
58
35
96
4
52
31
5
197
42
30
48
41
51
209
3
3
16
3
28
39
48
33
65
116
26
4
33
48
36
3
33
3
20
3
53
72
24
13
4
49
67
5
42
45
13
3
4
58
49
111
70
52
84
49
79
74
24
193
19
79
45
18
44
43
5
58
46
*****
65
4
60
25
70
75
38
60
56
47
4
156
212
156
23
11
4
21
3
22
58
55
31
27
17
36
47
98
4
64
42
14
65
68
60
41
79
110
33
5
18
100
81
43
68
132
47
29
3
40
23
5
60
54
74
29
86
31
52
53
4
115
3
55
23
21
69
7
52
51
76
48
2
50
51
193
71
7
34
55
12
27
32
54
6
78
77
13
76
21
69
84
47
271
168
5
68
57
45
54
17
41
48
64
73
91
35
73
52
57
84
9
29
16
69
97
57
39
38
7
44
4
28
53
8
22
38
34
58
4
64
4
6
180
82
86
17
20
21
67
5
59
61
47
86
103
53
216
6
76
60
5
148
29
30
65
3
67
53
17
73
5
101
116
25
49
55
50
79
18
24
119
56
24
58
24
50
141
3
57
39
72
3
114
8
31
42
118
68
180
16
105
110
71
3
46
21
4
50
32
58
3
19
55
56
65
93
32
2
53
52
7
44
53
33
3
5
65
47
25
130
128
141
69
152
181
45
34
32
57
53
25
132
52
5
14
64
64
4
27
12
66
37
4
47
4
165
47
124
169
115
120
25
67
57
38
29
35
4
59
59
20
3
6
5
5
19
47
56
33
145
55
108
6
55
*****
26
49
22
34
47
50
40
51
40
32
32
5
34
4
3
63
50
46
164
101
36
104
230
41
4
47
51
5
99
60
32
46
168
3
6
4
69
40
36
59
56
13
128
57
14
55
50
10
16
10
158
164
5
41
21
39
5
42
33
41
19
137
2
4
48
51
105
49
3
37
46
50
199
118
8
5
5
99
6
41
41
31
2
56
36
57
61
58
37
57
56
7
47
59
15
51
28
70
5
22
39
33
59
48
30
49
6
184
5
12
58
16
43
42
50
47
8
69
21
53
57
19
28
11
79
43
68
76
29
95
2
37
73
3
38
41
27
60
124
11
49
5
55
71
69
2
39
69
40
65
3
42
45
34
150
140
4
64
47
64
53
120
72
85
41
70
74
19
9
64
33
48
4
49
54
13
69
5
42
47
53
7
52
35
47
5
136
5
54
58
113
55
58
167
103
130
46
59
8
2
55
44
30
27
26
14
3
37
58
46
5
54
45
46
117
65
19
49
4
44
57
128
17
4
46
74
12
79
6
55
79
4
16
30
43
76
57
147
49
3
45
49
3
3
16
13
142
4
50
52
56
11
25
33
41
53
31
18
138
3
67
41
49
55
40
4
17
58
10
41
5
10
40
60
104
4
22
58
17
87
45
32
42
21
26
49
95
5
3
158
24
2
41
19
17
9
47
33
7
6
60
4
81
4
55
30
16
226
4
60
58
25
6
39
57
58
4
4
58
53
11
3
53
57
164
78
46
12
22
53
58
36
4
10
27
66
50
81
27
18
48
32
18
186
5
52
47
37
196
4
34
41
15
24
68
7
57
32
58
4
5
35
27
82
116
6
52
67
50
48
8
45
51
35
8
57
8
85
95
33
63
18
29
95
102
44
42
45
27
43
8
43
50
3
122
53
98
45
54
60
16
86
6
29
60
20
10
10
6
54
4
29
42
68
13
151
22
89
45
23
9
57
38
62
61
31
9
40
53
43
37
38
158
140
55
101
31
18
49
20
56
16
98
32
5
35
154
17
17
36
45
49
58
4
47
33
63
53
123
102
*****
48
64
172
79
6
3
45
53
27
4
78
62
60
77
48
68
50
58
11
13
4
41
85
42
10
46
30
9
5
67
42
41
9
23
41
21
58
28
144
45
4
42
86
99
13
71
68
83
7
29
54
56
5
66
21
46
50
65
75
3
46
40
89
38
20
19
17
33
77
34
134
54
145
33
43
5
148
39
63
106
25
36
54
16
83
106
77
40
61
57
6
27
4
60
69
82
120
44
74
38
49
70
91
5
51
84
61
12
295
182
52
7
46
102
7
46
7
48
64
99
132
3
17
47
129
88
5
28
60
8
15
4
37
71
145
72
48
106
47
104
69
58
68
30
72
17
3
26
6
103
20
48
31
17
59
4
43
4
119
55
39
132
17
75
59
6
181
94
226
49
54
4
54
195
42
98
39
94
66
4
142
90
81
72
73
89
67
199
2
67
33
161
93
37
165
117
7
68
36
61
64
7
58
44
26
170
44
4
24
63
7
136
18
48
57
15
62
144
40
55
55
68
18
51
152
81
29
3
66
125
87
46
124
152
76
51
66
61
28
75
31
147
3
43
57
15
210
143
20
59
58
49
64
43
16
196
222
71
3
67
47
61
187
72
4
66
46
45
23
49
51
61
74
5
48
47
5
22
3
45
59
160
46
16
34
20
49
56
3
3
47
38
31
5
53
53
40
44
3
46
51
143
37
49
86
54
61
63
35
62
47
12
73
35
33
51
4
42
3
72
4
3
43
5
3
75
3
55
78
38
163
110
119
13
56
43
68
58
27
2
4
15
30
34
54
33
56
51
38
41
64
50
69
4
129
247
12
42
54
66
20
65
5
62
57
39
9
10
26
33
14
171
4
4
55
8
49
43
35
57
5
4
50
35
4
13
63
74
42
95
72
58
65
6
188
35
139
51
36
46
53
47
7
42
55
4
56
9
21
60
64
301
90
85
20
54
59
16
116
194
30
4
29
68
49
109
170
45
*****
4
11
3
15
18
10
40
17
15
30
2
32
54
47
14
44
45
50
15
47
62
70
33
52
4
94
37
35
124
28
45
40
32
50
146
3
16
35
42
11
70
50
67
60
3
20
31
60
34
4
161
106
4
24
70
93
11
203
209
104
3
50
48
31
58
12
41
2
32
58
36
155
92
104
78
60
83
2
153
21
46
65
2
6
34
51
31
13
164
47
135
145
30
29
62
44
15
25
122
302
125
26
6
56
51
68
26
2
14
43
88
93
19
52
36
6
98
49
36
63
159
64
7
42
38
43
4
6
33
33
150
60
21
65
23
36
84
66
74
85
73
64
17
7
12
75
59
6
121
53
36
51
31
66
88
155
50
8
48
157
71
3
46
38
3
4
64
24
55
4
4
77
3
202
4
64
71
49
78
94
84
80
3
115
3
41
80
5
95
41
49
79
24
14
105
304
49
3
61
67
42
88
37
71
67
93
81
126
86
2
81
13
4
3
74
74
79
7
51
6
128
15
10
35
45
77
8
24
40
49
106
27
76
116
161
60
91
40
24
76
34
177
121
7
30
43
53
151
30
33
215
7
59
64
49
25
5
48
50
69
34
2
44
60
5
48
34
85
65
2
52
40
72
61
49
63
33
25
49
3
164
29
45
42
3
11
9
45
66
25
112
184
4
59
28
43
66
97
6
8
116
112
52
10
12
47
53
34
13
196
36
80
48
3
81
9
4
25
40
111
3
53
60
8
7
49
113
67
84
144
134
69
3
49
65
148
3
3
5
208
17
174
154
276
143
38
41
36
28
77
21
5
42
43
52
49
107
30
58
67
55
3
78
17
39
40
56
4
59
50
*****
6
36
19
42
58
41
52
42
35
44
44
30
162
15
102
61
3
6
42
64
90
36
109
228
161
66
136
26
77
77
46
52
117
64
15
62
57
75
105
37
6
35
119
97
88
55
77
80
26
30
27
2
105
4
43
64
8
242
24
17
69
37
98
64
311
212
116
5
44
70
3
4
42
5
3
32
74
73
25
76
113
113
7
30
46
33
59
4
11
90
115
53
45
78
49
51
36
13
120
98
88
44
58
43
38
4
79
42
42
138
89
31
132
4
92
67
14
87
9
40
83
7
55
67
145
80
3
113
86
5
91
15
63
40
20
73
13
55
110
32
43
28
57
45
82
29
111
101
61
6
21
65
29
224
4
62
42
79
12
3
14
76
118
78
17
169
49
27
63
51
82
93
191
103
94
75
80
82
9
180
188
17
115
169
4
77
59
5
67
48
35
35
10
8
35
63
75
42
109
16
5
47
4
118
93
120
34
21
41
50
55
10
4
48
68
3
22
35
55
13
41
18
52
54
64
80
5
48
45
4
72
24
28
44
4
109
94
94
22
69
62
3
8
46
8
79
55
53
60
33
189
29
92
35
71
63
60
62
18
65
63
61
3
52
51
76
20
27
148
94
47
38
73
3
111
4
48
55
39
111
65
35
3
17
102
42
51
223
55
5
60
39
6
6
65
79
32
16
46
57
4
55
18
*****
77
69
73
59
47
50
68
50
62
50
42
28
3
26
8
105
6
35
58
30
15
215
90
3
54
86
5
42
65
65
7
18
47
44
66
86
17
43
36
57
5
28
32
36
25
42
12
61
47
46
22
31
42
159
3
58
67
3
6
56
94
27
73
6
49
5
122
33
54
60
19
75
3
27
62
4
34
44
45
63
65
61
49
20
44
47
88
30
27
3
46
93
48
177
37
4
49
45
130
213
31
20
114
10
6
123
60
77
128
49
22
48
38
3
43
3
46
36
108
6
3
27
22
102
20
5
36
48
56
14
9
48
67
13
4
55
42
41
33
51
32
43
47
127
68
6
2
50
160
84
21
201
216
24
36
53
71
22
39
101
51
95
58
69
13
57
154
47
3
46
53
2
68
71
51
88
106
117
4
173
106
157
41
122
2
6
15
15
38
45
36
82
72
99
46
76
73
12
4
50
91
53
19
35
75
75
74
3
140
91
191
4
75
76
80
23
9
33
71
7
43
56
18
70
82
192
53
18
33
60
49
5
12
47
24
73
3
50
43
4
101
6
11
17
4
126
58
76
57
59
77
43
81
43
57
75
51
41
54
21
65
19
55
14
88
30
48
39
4
117
84
6
46
8
174
21
45
61
43
66
53
10
26
17
61
4
31
50
68
72
40
103
73
95
54
45
47
73
146
61
93
6
4
106
86
134
75
48
32
3
118
243
16
11
40
51
3
127
66
328
4
72
75
40
5
58
40
69
36
97
65
66
74
32
25
164
42
61
49
49
4
127
209
64
49
45
50
4
149
72
136
14
45
49
65
42
6
34
54
3
91
4
28
62
*****
129
106
45
13
97
49
81
77
73
51
70
60
43
45
18
66
2
97
71
77
4
143
204
36
7
67
75
223
70
25
94
48
113
93
94
102
84
15
23
41
70
40
121
70
37
99
46
87
51
45
280
109
4
131
242
228
4
60
70
30
43
80
6
62
12
118
152
28
186
205
99
97
51
89
85
53
169
129
14
42
40
64
9
181
49
59
14
118
111
63
62
60
70
4
70
76
74
22
23
24
60
20
107
6
161
154
186
7
66
18
3
141
3
58
55
122
123
48
4
4
69
96
4
38
49
2
186
14
203
45
4
74
3
52
45
83
70
16
157
175
67
40
48
48
4
112
25
113
83
51
77
26
33
80
267
3
47
37
69
124
13
166
192
88
14
37
55
13
4
38
51
43
33
79
16
3
28
101
77
26
148
188
19
3
20
72
111
110
54
125
64
213
60
54
39
91
101
47
76
276
31
41
60
61
3
105
38
96
10
54
80
53
60
120
*****
43
34
56
60
88
92
85
72
90
96
82
85
73
75
66
59
27
7
56
65
146
113
4
35
44
3
45
2
55
67
94
67
42
67
66
64
5
89
71
53
106
124
37
111
49
83
44
58
32
3
208
147
37
4
79
82
48
115
121
13
56
50
38
82
99
75
173
298
250
71
208
117
316
62
16
105
109
99
83
69
97
64
50
47
76
4
109
94
196
206
51
82
43
100
47
230
18
93
413
53
113
118
49
38
87
28
85
12
316
4
68
14
60
4
13
57
30
32
90
7
61
63
2
4
60
25
11
166
234
76
174
53
84
85
65
19
148
7
50
59
53
102
79
47
134
183
151
68
136
3
57
76
8
2
47
28
91
14
45
64
16
71
6
59
78
54
86
122
44
136
200
3
82
43
61
7
98
76
85
4
118
29
61
79
7
171
61
141
189
239
5
48
53
230
116
4
167
240
65
52
39
17
17
94
64
240
212
171
3
67
63
159
102
6
86
139
69
70
83
75
188
109
79
72
45
78
97
66
83
124
8
33
64
80
6
193
3
31
73
104
95
12
159
79
84
98
22
47
171
75
8
63
66
97
*****
119
216
323
245
222
36
34
60
41
36
68
81
95
115
122
66
103
23
59
73
50
91
94
77
134
53
5
66
72
27
129
120
16
173
92
4
75
64
90
246
139
30
110
163
92
88
63
46
102
23
53
88
184
86
105
58
44
113
25
104
160
113
55
42
127
3
54
76
112
71
116
3
181
3
96
103
54
100
110
101
6
55
98
82
112
37
84
120
110
9
291
116
102
201
100
67
113
5
69
62
150
118
40
30
185
121
123
5
20
107
105
79
23
18
6
20
71
82
116
100
52
100
91
106
12
78
4
76
93
216
4
3
45
104
54
147
110
132
10
191
211
65
11
63
83
5
202
70
333
149
219
34
273
31
62
108
87
95
35
47
34
56
89
29
*****
91
87
86
77
79
77
71
46
30
75
69
51
4
41
21
91
2
6
17
82
18
71
99
16
65
132
66
2
71
64
112
83
200
80
5
84
95
33
127
149
147
32
280
44
63
92
80
72
3
40
54
68
29
154
20
76
70
65
61
56
82
61
5
49
61
3
28
68
89
17
2
78
68
16
85
4
42
51
21
172
11
134
93
3
82
3
159
60
87
86
53
54
85
151
5
76
64
208
103
25
54
136
67
9
35
66
127
27
47
2
46
193
88
4
61
51
5
45
31
52
50
53
89
126
54
103
10
5
33
71
33
67
47
67
83
80
41
3
65
88
48
56
72
45
65
167
94
59
35
38
89
71
53
83
190
89
21
38
48
82
98
77
238
116
203
143
17
69
62
*****
146
205
283
289
101
235
182
32
80
51
52
25
93
97
99
99
81
2
69
55
124
140
33
21
183
96
84
56
69
93
102
6
85
29
86
112
56
32
198
72
3
56
75
187
140
42
5
50
108
65
42
68
255
113
62
126
190
91
4
85
69
104
110
76
19
278
78
59
56
49
3
199
4
48
52
168
152
49
93
274
6
110
4
114
27
143
19
58
248
72
83
76
91
14
47
3
73
82
18
10
15
40
33
90
110
3
117
37
65
65
76
44
156
22
2
58
49
74
24
3
61
35
104
62
5
28
35
12
107
40
7
39
66
70
37
97
37
71
63
17
33
164
20
16
49
78
2
5
65
53
73
199
98
38
97
37
88
66
39
124
91
180
3
65
50
105
77
18
103
140
31
4
71
59
164
61
11
169
4
*****
78
73
109
95
65
59
134
133
134
141
37
59
5
70
78
104
105
54
67
96
118
36
95
45
93
104
45
5
63
92
97
77
106
162
93
24
126
116
157
145
32
93
85
103
82
69
127
128
69
44
236
26
82
37
30
4
253
91
26
54
108
88
38
50
3
12
97
34
8
12
102
89
59
61
117
128
39
67
240
172
42
66
52
90
105
21
3
50
85
93
82
12
125
94
68
49
74
51
86
4
71
71
220
125
82
3
81
119
108
24
61
48
111
42
3
60
112
99
30
76
179
4
101
65
62
83
113
11
9
27
59
114
68
81
275
91
27
102
109
24
54
63
62
139
122
67
77
208
126
59
161
225
115
62
100
232
97
106
9
74
101
105
13
55
307
35
3
83
74
219
5
38
61
65
73
73
36
3
81
109
78
71
215
165
78
75
73
85
78
82
153
5
41
92
104
3
28
38
86
83
69
21
266
140
6
78
46
112
96
6
123
31
69
83
11
36
114
3
46
37
40
227
86
110
107
99
92
23
70
49
53
45
45
101
110
6
68
41
3
69
78
87
3
35
6
76
102
48
55
95
63
90
64
42
158
*****
154
55
5
39
10
53
73
69
82
71
57
93
47
71
85
104
212
113
4
241
204
61
22
40
81
21
73
86
139
115
201
69
102
81
100
35
69
80
172
119
66
74
244
43
56
43
55
22
74
46
50
6
66
69
3
66
74
105
108
59
51
210
3
98
27
67
144
66
37
145
192
160
4
55
37
115
92
29
137
198
3
91
48
77
263
132
99
19
29
43
103
42
41
126
116
81
51
263
55
98
56
75
76
85
48
85
3
8
150
23
39
26
75
145
43
23
285
5
90
74
90
130
132
3
292
130
114
3
44
77
162
119
72
53
275
35
4
60
75
83
116
123
35
159
184
20
95
64
84
98
68
243
134
29
31
61
72
4
107
47
103
43
86
82
51
64
245
42
3
50
27
229
93
4
26
60
65
25
15
107
28
47
34
10
29
5
66
40
7
77
112
156
68
4
81
194
121
67
66
136
156
153
62
276
97
36
65
55
91
109
44
57
9
5
46
12
36
42
71
82
6
70
79
57
65
71
207
8
*****
51
59
179
207
252
196
17
74
86
116
114
106
95
98
98
89
21
198
151
169
29
158
256
132
37
185
138
126
9
57
80
102
113
68
42
73
6
98
3
78
6
70
80
31
61
49
62
63
65
278
222
19
53
89
45
16
106
3
4
65
29
73
115
131
199
23
6
58
68
63
67
23
58
72
3
100
92
211
27
5
120
42
99
130
37
26
6
80
216
103
2
80
59
85
99
3
113
52
35
86
36
70
165
7
42
42
64
100
84
13
154
213
39
27
52
59
18
82
74
188
198
12
62
47
30
68
31
4
43
40
68
61
18
53
45
3
249
73
68
40
101
100
94
76
115
114
66
76
151
47
2
30
49
10
101
58
143
30
50
54
47
44
81
136
7
40
34
147
106
3
97
7
42
64
118
12
109
266
6
72
74
16
3
60
70
66
3
143
4
62
51
39
38
54
45
54
17
67
9
54
35
46
3
45
62
79
4
159
3
55
59
12
61
23
64
60
3
59
47
61
53
42
49
4
62
52
50
56
24
59
69
37
121
73
22
184
168
6
49
86
8
142
52
24
55
62
88
5
29
48
72
72
7
40
70
57
5
20
56
64
5
153
33
48
33
50
*****
41
48
37
40
40
44
41
48
45
31
26
22
37
2
77
149
7
29
70
69
24
4
27
58
60
29
155
237
5
79
98
97
125
15
143
78
150
193
38
3
60
101
81
19
104
208
71
2
50
54
37
50
47
58
56
8
179
41
18
54
51
73
30
79
16
66
79
16
129
210
38
39
227
91
104
46
57
63
124
82
24
180
138
76
30
68
31
3
179
4
46
48
4
14
43
22
40
133
88
4
27
35
8
90
8
32
68
31
73
35
63
69
72
113
71
26
3
51
74
49
178
252
68
5
48
55
16
44
7
43
59
23
140
51
37
19
50
64
49
5
17
42
59
33
41
2
4
43
13
5
51
126
4
38
2
107
4
130
59
55
71
67
69
50
116
88
34
53
33
57
155
88
162
15
69
30
66
5
97
7
8
50
39
35
46
5
60
5
37
75
13
171
38
155
3
52
77
3
7
60
96
3
10
45
50
89
24
37
33
53
28
102
18
25
10
32
51
15
58
148
73
14
52
53
43
81
30
175
62
7
61
11
75
3
56
50
18
15
7
45
66
29
164
19
79
47
71
63
75
146
*****
60
7
57
31
36
40
170
95
163
37
26
60
80
53
24
53
49
71
48
120
78
11
142
8
61
89
40
172
80
185
33
5
37
43
66
3
68
47
99
65
27
16
45
5
105
42
112
3
38
70
3
118
41
29
71
47
12
156
66
3
68
73
77
177
230
3
53
58
72
92
130
180
39
9
41
74
50
55
95
52
62
57
34
50
67
15
45
53
39
73
61
5
65
24
14
4
3
13
33
46
43
56
32
90
147
26
56
57
31
32
75
4
50
10
6
66
44
77
36
99
82
133
42
46
46
14
68
31
51
61
81
100
31
29
187
43
8
52
43
3
10
63
41
57
71
171
2
37
57
3
154
74
97
39
30
98
3
57
53
5
132
18
143
169
96
52
52
4
143
3
43
72
65
72
5
63
34
8
107
64
87
48
26
47
61
36
58
33
77
80
4
11
25
80
56
6
16
18
36
81
7
34
26
21
81
108
9
41
87
94
65
49
88
73
75
4
158
152
104
107
46
85
3
89
11
18
153
91
68
43
4
146
6
49
55
23
66
86
27
44
45
41
90
30
76
47
17
91
36
74
189
57
76
3
56
210
5
66
7
92
193
237
49
112
95
4
90
59
67
33
55
71
19
3
28
71
78
46
127
186
91
13
135
183
283
13
77
36
86
93
4
23
44
94
94
4
62
52
16
52
70
161
38
5
75
34
69
5
62
63
90
128
152
64
19
41
49
21
29
51
65
39
62
78
3
86
29
45
60
3
4
43
22
7
32
40
50
130
57
42
125
100
121
11
4
43
6
63
42
21
36
124
56
37
197
104
4
61
44
49
42
159
31
77
38
26
66
48
73
55
63
59
46
12
170
28
3
40
42
88
103
128
2
34
58
52
4
31
4
97
30
17
4
40
42
3
67
44
51
118
54
30
43
55
51
45
7
*****
52
36
50
40
4
37
57
56
58
31
3
4
4
30
104
41
83
198
12
6
3
61
51
181
26
3
45
77
8
104
31
44
43
73
65
87
251
120
158
72
62
48
81
70
34
76
4
36
77
3
39
41
8
13
4
43
52
40
39
35
22
59
12
7
52
40
52
102
71
5
35
50
104
130
63
75
182
6
67
52
53
89
87
52
38
48
74
62
17
92
51
76
67
28
26
137
42
27
35
33
89
35
4
7
41
214
3
55
39
51
15
36
53
38
50
35
66
98
188
152
130
32
126
38
81
73
7
50
10
77
70
3
158
160
47
52
49
58
70
71
9
33
33
112
95
67
93
24
77
88
16
5
9
39
59
41
103
132
46
5
33
50
98
253
43
31
29
84
97
5
3
59
188
107
10
49
36
15
56
4
9
18
68
64
25
16
10
4
40
2
32
22
31
68
106
27
218
99
2
3
49
132
241
35
18
64
104
87
37
71
93
3
85
6
139
52
42
70
52
54
89
172
3
70
59
8
87
73
57
50
35
43
4
45
36
111
30
22
190
8
40
61
34
56
3
49
79
73
3
40
36
44
42
74
3
4
26
43
16
62
80
12
8
41
47
79
26
3
50
37
29
8
44
41
37
27
107
133
9
4
*****
78
69
78
79
72
65
74
35
70
49
21
50
5
25
3
13
13
16
48
49
128
30
4
26
32
44
4
43
45
55
67
21
39
29
33
35
3
14
52
26
4
132
16
24
27
77
82
65
217
244
47
70
61
68
25
71
40
10
21
80
108
57
62
171
51
8
51
5
147
15
2
61
57
260
68
45
168
85
65
64
3
89
54
37
73
6
128
182
47
31
8
30
56
71
4
24
23
262
38
101
146
193
4
71
32
45
13
27
4
33
41
55
34
8
48
30
112
62
160
84
111
53
81
61
40
98
53
9
50
26
96
65
36
11
37
3
8
60
39
11
173
28
68
44
43
7
36
15
3
36
76
46
6
37
36
83
81
22
38
48
4
183
123
57
4
49
61
60
34
4
41
57
109
5
5
26
20
10
93
38
23
62
4
6
49
30
4
10
52
59
3
5
44
3
225
67
11
54
42
55
151
56
86
80
33
43
47
102
28
192
46
3
45
48
85
129
106
33
3
58
73
4
18
14
57
46
4
2
34
14
7
59
51
46
113
42
49
165
10
39
57
45
54
28
90
15
48
25
97
49
6
38
43
100
8
3
53
59
100
55
97
3
41
76
15
13
3
23
64
5
46
15
43
17
4
47
36
30
39
39
10
22
25
22
3
35
56
56
66
13
20
38
46
22
47
63
68
21
40
63
4
89
28
66
*****
4
107
7
32
7
36
37
25
34
34
40
25
38
34
41
38
28
4
18
25
58
57
66
125
47
3
25
62
36
71
45
34
33
118
58
3
9
45
4
10
53
30
47
9
5
62
35
24
146
155
4
50
52
110
51
3
134
27
72
36
17
14
144
5
33
33
63
95
77
11
49
39
5
3
58
49
48
107
5
5
24
6
6
4
38
9
22
48
75
17
4
10
41
225
46
3
58
65
113
87
4
3
44
70
78
5
40
50
36
6
68
27
74
177
55
101
72
144
112
6
34
49
71
79
32
49
42
4
15
3
49
54
214
43
41
179
72
72
47
4
153
223
62
58
45
45
60
63
16
120
159
6
59
34
60
126
67
4
53
44
55
71
29
27
46
49
75
12
88
4
29
73
135
14
162
217
5
62
56
156
80
40
103
139
17
13
20
31
22
74
61
77
33
90
76
17
181
225
43
38
17
43
30
50
3
49
44
23
79
144
30
107
29
3
4
5
50
51
43
50
160
100
23
3
35
35
42
54
4
26
18
155
39
64
65
32
38
38
91
230
200
6
60
51
43
41
114
68
91
8
57
71
38
3
31
8
209
5
54
33
16
53
46
12
29
16
50
2
33
21
3
84
4
19
60
5
54
67
42
31
105
16
*****
59
59
43
45
15
4
105
177
44
3
16
33
38
47
53
60
47
53
22
115
12
39
51
49
28
38
80
11
26
41
23
103
2
3
55
60
56
3
10
46
27
41
40
13
46
32
5
20
25
28
13
45
7
13
52
3
66
12
50
37
3
26
33
6
26
123
38
30
43
51
125
68
10
4
36
43
37
4
46
46
34
42
32
70
40
51
59
4
5
48
27
45
16
8
42
128
64
43
253
64
108
45
39
52
48
27
10
5
45
34
41
18
3
46
50
48
3
46
55
61
120
23
148
81
21
54
12
39
198
29
4
45
52
35
35
7
43
57
111
35
78
56
4
68
20
3
32
46
12
4
53
32
40
4
181
29
23
11
5
28
23
43
47
2
28
4
13
33
80
149
19
5
43
36
34
13
35
33
60
51
38
80
3
59
61
3
4
79
73
170
27
160
58
75
58
44
18
175
50
54
26
50
14
97
5
55
64
39
60
7
69
46
81
5
50
51
45
83
75
47
36
6
21
47
5
60
41
170
27
3
52
41
18
6
37
50
42
20
7
39
14
49
6
111
4
20
48
40
93
53
38
33
50
37
3
43
37
138
79
10
91
4
27
68
35
229
4
72
51
31
4
20
5
39
3
29
41
140
64
*****
19
31
24
60
187
125
58
107
3
124
17
5
47
28
39
47
41
27
47
45
29
11
32
43
48
24
17
9
3
48
28
117
198
33
4
43
60
126
65
77
70
17
72
80
11
164
19
7
59
4
14
5
47
58
27
84
49
44
66
42
62
119
75
31
58
8
77
153
4
28
57
64
4
48
16
52
82
32
38
26
77
12
66
52
2
43
104
84
10
122
172
31
3
46
52
4
80
55
41
38
25
38
5
29
47
97
19
25
58
33
64
16
4
53
36
80
33
3
45
64
76
11
61
26
52
31
72
77
28
39
93
82
19
47
4
28
46
15
5
35
23
54
3
30
20
41
67
32
70
48
28
69
38
101
67
109
3
44
37
7
19
39
48
41
2
22
36
27
44
109
18
3
43
44
4
55
44
39
44
30
3
34
39
34
3
3
46
33
33
3
7
4
5
6
48
46
4
81
6
4
49
3
249
18
13
49
57
*****
8
4
4
12
54
62
58
58
45
64
62
50
25
49
20
7
8
45
23
38
4
132
59
49
34
52
71
30
4
17
55
88
98
24
49
45
22
59
31
9
35
68
37
3
39
32
20
74
14
31
23
90
52
39
100
54
30
51
4
150
65
47
26
35
47
38
50
9
35
48
45
72
4
50
59
247
43
51
90
71
117
83
5
135
126
61
74
8
32
83
36
3
56
47
115
66
27
16
31
83
96
4
12
50
37
58
64
80
7
28
45
65
133
153
2
49
28
33
126
30
84
4
15
8
4
57
28
26
142
29
3
38
46
133
4
10
27
49
99
72
3
42
42
32
72
19
44
23
48
43
10
41
5
58
62
48
143
137
67
23
61
45
183
89
58
225
187
58
39
34
56
3
3
58
40
49
83
217
3
32
33
38
34
5
24
44
29
24
13
40
29
5
7
34
3
4
17
45
41
70
121
5
48
41
19
24
163
33
18
46
42
32
44
101
2
4
4
22
51
46
47
8
151
18
3
53
10
15
38
*****
4
3
4
54
4
51
50
34
29
31
68
27
35
7
2
93
98
160
5
49
145
4
8
11
50
47
74
34
17
52
103
51
11
141
124
108
17
6
29
21
30
24
44
17
48
45
65
161
177
38
24
31
9
2
111
6
36
97
76
63
24
80
65
3
3
26
24
9
4
55
54
116
66
48
68
61
34
67
26
20
10
42
39
52
57
92
8
22
94
57
4
45
30
105
78
11
61
4
14
43
27
12
5
46
3
13
25
26
6
163
4
28
48
83
4
44
45
63
15
3
7
5
15
20
42
75
2
80
43
74
67
47
84
3
10
53
8
21
31
22
49
4
39
60
4
174
56
96
3
177
82
22
20
82
60
77
25
3
105
57
53
6
46
137
77
26
26
46
54
38
113
128
134
4
46
29
57
75
3
30
35
59
80
28
27
27
58
10
3
11
36
43
2
165
51
20
63
60
56
44
157
131
129
39
78
28
54
65
26
17
22
60
57
45
47
164
45
3
2
91
153
14
3
42
35
113
27
128
9
41
42
52
78
50
40
38
55
4
97
67
43
50
26
36
70
7
54
39
3
41
37
52
19
19
83
17
31
33
3
10
51
49
19
54
85
3
42
18
7
41
55
43
3
76
38
48
71
18
93
10
64
44
18
4
5
44
39
90
119
22
66
51
5
180
37
136
7
8
43
77
41
42
48
24
12
14
23
34
46
5
121
174
46
78
42
51
59
131
23
29
38
*****
72
31
66
44
73
68
59
58
15
62
54
39
48
52
3
4
6
4
69
66
66
68
65
169
209
25
130
5
76
83
4
65
44
64
71
40
278
115
42
11
4
40
4
35
36
50
36
100
3
9
16
37
63
33
28
35
44
4
124
4
3
5
2
35
54
4
44
21
45
32
91
160
101
130
15
80
54
17
45
4
4
46
55
19
28
34
43
13
29
53
96
47
57
53
9
17
43
44
41
4
2
50
25
76
70
39
29
23
61
79
40
49
60
67
42
132
40
23
26
47
53
4
84
40
59
50
4
3
52
5
93
25
65
61
3
6
44
86
70
61
6
44
51
31
52
46
45
4
42
15
38
40
100
61
16
28
50
39
50
16
12
130
32
7
33
31
103
70
36
56
3
76
43
64
3
43
3
115
27
24
22
41
52
28
14
8
52
45
21
184
112
240
169
32
17
42
66
31
8
19
42
46
2
237
113
52
18
44
61
49
4
99
38
40
5
37
5
3
70
155
27
17
13
35
3
19
44
51
53
49
36
92
29
54
6
207
170
25
40
23
45
46
21
88
235
3
51
46
56
2
52
27
44
93
4
52
3
29
50
16
44
3
49
83
41
40
24
9
25
40
13
*****
15
39
39
25
4
35
7
2
6
4
58
8
5
3
17
4
3
4
6
6
31
105
82
32
61
43
74
41
146
13
4
38
213
44
28
43
10
52
61
34
37
110
10
31
32
57
21
31
5
30
36
5
141
3
17
42
30
38
104
3
49
30
39
81
85
13
43
40
14
61
19
41
59
38
18
241
3
15
53
48
79
3
61
26
47
133
28
4
42
26
88
3
57
45
41
80
61
23
37
34
10
43
26
12
11
44
59
45
48
7
51
59
14
152
98
149
16
38
40
21
12
3
42
51
11
55
179
128
80
67
7
41
62
108
6
52
52
47
102
66
9
34
36
3
22
11
21
48
26
38
40
84
43
41
68
72
195
134
10
3
51
50
15
3
43
35
37
26
47
4
37
57
117
23
22
4
43
7
78
50
57
73
36
15
4
62
41
83
91
25
30
51
5
97
4
45
46
3
58
37
35
2
4
27
44
12
90
46
18
60
4
17
33
14
67
28
3
35
37
48
3
35
35
4
9
29
33
44
57
96
3
38
60
3
59
56
36
15
3
23
43
20
29
113
*****
17
87
156
143
95
65
23
12
16
30
9
4
8
51
44
53
37
54
50
4
38
29
6
3
38
8
27
10
21
29
38
4
3
19
32
113
9
3
45
4
20
44
66
8
61
11
23
41
3
81
37
26
30
89
29
3
39
40
131
30
67
81
48
60
56
15
47
147
88
46
53
38
2
36
34
38
50
8
4
53
5
8
40
32
35
20
4
49
46
26
8
31
41
17
19
27
33
23
13
34
79
27
34
55
53
2
68
37
38
26
20
246
158
30
5
54
60
103
83
173
17
96
37
55
8
13
79
57
45
3
149
85
3
48
42
103
81
3
57
15
61
25
42
15
27
51
40
5
42
55
72
23
42
19
48
57
26
38
27
125
27
29
41
21
27
52
109
4
21
43
4
127
7
48
60
24
96
3
20
55
3
58
33
8
111
49
41
*****
25
42
34
31
39
21
44
32
37
25
21
6
9
4
67
10
65
43
81
4
23
5
3
14
50
43
28
142
10
5
33
5
4
26
7
18
7
23
24
3
44
38
48
20
7
25
40
4
3
39
18
24
3
22
42
17
37
7
32
30
13
45
18
11
3
3
125
7
35
34
3
11
13
55
40
3
55
42
49
45
79
32
3
38
34
4
28
41
3
4
33
28
61
21
86
2
40
53
5
53
44
4
80
38
43
40
3
6
37
25
40
10
62
37
35
37
16
44
3
7
51
28
71
18
32
53
13
223
199
34
4
56
47
20
156
132
87
27
30
46
36
60
57
114
20
58
53
22
18
12
141
3
46
40
43
10
3
10
38
19
19
41
18
47
13
50
112
9
22
63
69
4
64
36
65
93
58
308
243
51
56
10
73
55
59
49
133
4
66
44
47
34
77
32
37
8
63
88
61
57
46
14
222
37
5
43
47
118
57
71
75
31
60
48
6
6
55
56
2
41
47
35
27
49
4
30
38
91
26
12
51
31
32
45
69
44
34
55
61
90
59
9
11
28
37
15
5
5
36
3
23
36
12
42
6
5
34
2
57
60
89
161
122
17
12
39
*****
28
40
43
40
23
3
28
3
9
3
53
60
29
3
31
3
16
13
39
19
19
8
57
12
26
39
16
3
27
32
29
34
13
23
18
57
34
14
186
30
69
48
65
15
14
44
110
3
48
35
3
3
56
22
103
11
8
51
24
40
6
53
44
11
43
53
3
3
56
11
19
47
49
6
271
94
7
62
3
78
13
24
42
10
117
99
112
3
9
4
6
39
46
16
81
18
32
45
8
6
39
8
150
73
32
42
42
58
3
2
48
16
12
7
55
69
128
56
126
44
18
9
70
30
59
47
66
45
5
89
3
44
36
27
97
87
46
58
4
45
38
50
8
105
121
87
95
63
54
47
63
6
6
58
39
245
16
4
80
70
26
29
20
30
55
21
32
108
111
7
54
48
5
68
4
33
48
23
92
38
8
6
4
37
29
2
28
48
17
28
15
98
28
43
61
3
30
13
43
43
23
59
85
25
55
25
4
11
32
45
38
9
8
17
13
54
79
39
35
47
33
2
18
17
56
58
26
8
32
28
4
8
37
17
45
17
47
44
4
139
122
3
26
29
55
15
5
44
26
56
75
4
34
3
12
19
6
49
11
61
*****
41
87
127
114
137
63
39
66
36
61
76
68
55
71
71
52
41
39
37
38
38
43
3
64
14
7
19
72
85
43
30
47
3
20
54
30
69
35
92
4
118
38
16
3
25
18
43
3
107
103
164
35
17
76
53
75
41
125
131
5
47
2
3
35
58
49
3
6
42
8
79
33
27
52
127
71
7
49
53
3
4
59
21
50
51
36
4
16
9
4
50
54
3
33
45
28
64
37
110
150
132
4
42
58
27
81
127
4
50
80
69
47
14
55
62
56
30
5
34
14
37
37
2
39
49
58
14
54
30
7
33
2
3
28
5
28
4
14
3
16
10
37
44
4
5
11
46
9
11
48
4
88
4
5
52
3
50
37
42
77
6
11
42
8
38
30
18
59
29
227
38
3
55
7
7
48
34
34
68
6
23
22
4
19
37
36
2
74
35
47
47
16
19
3
56
65
4
32
53
30
49
97
217
72
42
53
61
53
95
133
76
6
61
4
95
26
63
66
51
118
5
62
44
32
22
12
81
10
31
35
183
57
24
97
18
32
27
19
11
3
55
30
4
11
28
28
36
26
60
4
26
46
43
12
46
48
55
12
27
3
43
34
21
38
2
4
3
33
33
39
41
28
*****
87
46
27
49
13
5
50
44
28
53
61
60
45
52
49
45
29
45
3
35
41
37
59
3
7
42
5
142
34
40
56
61
63
31
94
3
3
4
54
46
16
157
17
42
100
4
56
55
81
4
27
4
5
52
55
80
69
4
67
4
65
96
48
77
39
84
79
68
10
27
69
91
28
96
31
47
35
57
7
51
46
6
117
34
97
42
42
54
29
92
3
34
49
6
6
55
3
16
41
48
47
4
29
29
48
5
10
25
32
3
38
78
48
38
48
4
3
7
3
44
12
41
9
40
38
37
54
2
32
45
4
103
94
37
3
26
53
99
39
45
42
35
34
54
5
34
87
126
48
91
132
37
55
37
4
49
29
36
43
16
3
5
42
3
3
39
49
4
37
34
31
57
117
20
27
51
48
38
47
112
3
37
44
44
6
173
29
37
36
27
53
145
37
43
4
37
31
11
13
26
51
38
18
11
118
23
4
34
4
83
33
57
52
8
8
40
4
16
13
29
49
27
24
2
28
50
4
11
21
40
40
36
45
16
39
43
2
22
37
33
52
4
81
22
26
48
79
11
17
39
44
3
44
10
36
41
25
35
5
51
41
5
45
5
5
118
157
13
44
38
17
10
9
34
25
37
4
110
159
57
17
34
31
18
5
29
49
46
3
115
6
31
42
5
119
3
34
46
45
10
4
47
51
42
116
46
65
10
45
53
59
46
2
38
*****
3
22
4
3
93
4
132
12
10
39
46
52
57
27
16
42
53
5
52
45
4
69
96
63
52
14
16
173
5
52
21
67
106
50
21
103
27
45
55
11
49
214
24
3
39
53
51
30
18
23
52
66
59
10
72
12
79
79
35
5
42
79
77
23
6
37
72
61
5
3
46
25
18
15
36
30
43
9
6
4
40
46
44
54
49
27
214
54
3
64
66
11
62
8
35
62
73
39
26
22
14
13
5
9
40
45
128
17
27
2
30
90
42
79
49
52
45
55
26
14
6
3
7
43
46
57
50
104
3
36
43
4
107
22
21
47
46
59
57
99
24
51
54
5
98
32
36
53
10
47
25
37
38
82
9
3
20
49
111
39
34
3
30
42
39
54
36
43
18
53
5
52
45
14
38
109
5
46
37
49
44
41
27
15
49
13
15
98
220
35
27
18
78
60
65
3
61
45
82
97
8
42
3
77
5
62
32
198
45
4
56
46
87
122
21
53
42
41
46
39
16
97
15
15
20
18
21
179
70
45
25
13
33
32
66
37
42
30
6
85
49
49
31
30
8
39
15
47
5
43
52
32
46
16
89
25
28
40
32
5
51
53
37
4
17
37
50
34
2
3
47
34
25
4
20
38
2
6
26
4
55
*****
6
4
12
42
40
8
20
18
2
30
11
3
124
74
128
145
55
10
42
35
56
4
43
41
26
5
42
24
42
9
51
45
16
39
4
50
11
39
3
4
36
55
41
116
51
91
56
51
51
64
31
20
49
25
17
45
35
22
38
54
34
61
47
22
43
46
31
9
3
3
34
30
19
42
56
39
3
32
49
3
124
2
43
38
15
69
4
55
83
72
172
143
3
45
61
39
6
119
51
73
52
18
21
109
21
11
11
63
50
30
4
40
37
84
44
142
8
29
59
61
5
4
46
70
30
29
13
42
49
5
49
21
42
77
33
135
54
65
69
78
68
67
140
3
50
56
31
3
23
52
25
21
89
61
8
3
52
70
74
75
43
30
51
19
15
41
75
53
8
52
48
54
25
73
3
6
15
52
54
52
4
6
39
65
72
3
40
42
46
72
2
57
38
20
54
4
43
23
19
51
96
97
28
54
65
13
155
116
19
23
3
36
52
14
11
28
61
33
48
195
70
122
3
70
36
72
61
116
58
13
60
46
72
17
57
33
55
62
5
16
51
77
60
5
127
67
28
37
4
97
4
29
60
47
24
32
25
10
5
6
49
54
23
112
2
43
66
35
12
36
2
42
42
4
4
26
21
5
3
82
177
78
76
5
23
28
18
69
5
10
4
4
36
47
4
5
40
5
4
53
4
98
8
7
6
41
30
43
4
3
53
3
117
30
44
22
4
75
46
51
64
57
23
113
5
32
4
34
42
6
45
5
63
52
51
46
42
67
89
34
46
28
18
54
166
13
40
31
30
45
98
145
4
80
78
7
79
62
48
65
94
35
3
3
23
86
49
63
13
30
50
37
26
49
41
2
4
40
3
70
7
44
17
167
20
51
41
23
14
41
95
*****
3
2
4
3
5
23
39
31
56
52
54
35
36
43
48
71
5
107
169
43
43
49
42
11
22
52
59
57
20
98
30
48
26
55
24
24
3
29
60
33
20
49
36
43
17
4
8
3
86
3
40
51
41
32
2
5
25
3
45
30
25
33
2
23
58
92
62
3
4
132
19
74
41
35
45
55
48
2
36
34
23
51
4
4
118
39
99
3
20
9
124
4
53
3
40
36
66
52
37
48
35
2
47
7
93
36
48
3
68
7
40
3
61
31
23
60
22
5
72
83
95
71
13
5
39
60
57
40
36
63
70
40
19
104
35
2
17
65
7
37
22
42
24
79
55
3
42
29
40
112
116
24
37
10
40
26
4
6
48
6
6
15
48
58
35
4
2
96
4
5
17
110
5
47
21
34
167
38
15
45
3
6
24
19
27
58
15
3
45
16
59
19
37
18
2
37
21
134
79
33
64
58
74
100
44
151
43
28
51
56
42
4
47
24
34
4
157
27
63
47
3
13
4
56
60
60
5
58
33
63
183
56
42
119
3
75
64
39
207
17
61
54
38
53
81
53
12
4
43
60
7
46
10
39
88
89
29
3
50
53
163
16
51
39
10
53
46
79
4
3
25
4
18
42
71
9
71
36
64
137
4
21
27
46
47
21
38
57
47
34
66
94
247
110
152
73
108
150
118
4
61
55
67
3
51
59
65
186
76
2
46
41
3
81
35
46
55
10
4
5
25
65
94
152
8
52
62
89
36
10
43
43
8
25
9
41
59
4
33
41
27
37
36
114
52
32
38
34
21
46
4
47
39
4
60
26
29
24
21
92
98
32
41
45
27
35
68
27
31
5
178
31
52
33
51
49
32
126
241
27
4
49
53
3
41
30
58
61
62
213
138
3
50
35
51
100
36
75
84
53
52
51
16
47
4
19
47
19
37
55
64
42
6
160
138
27
85
49
44
34
3
8
10
57
6
58
50
39
6
59
14
52
23
18
82
78
45
52
39
22
6
40
18
48
75
48
37
27
44
3
38
30
8
3
9
41
64
5
45
51
2
43
2
20
49
3
38
54
9
74
80
53
29
25
50
154
14
2
35
48
72
36
4
51
31
3
3
44
4
14
27
63
60
78
67
66
52
31
24
59
59
147
79
39
49
65
39
129
57
28
22
57
4
144
39
23
4
3
203
184
25
78
48
47
25
14
155
63
8
*****
63
56
54
43
36
25
45
44
4
40
32
10
4
35
4
10
3
2
10
15
61
20
3
47
46
52
14
27
124
8
41
2
35
19
47
39
36
54
56
111
17
45
51
24
32
212
4
27
39
45
18
9
53
36
56
104
66
5
30
46
100
62
7
24
41
58
55
31
197
48
3
58
49
5
28
37
52
27
12
28
45
51
10
4
4
37
56
3
3
35
103
62
5
41
38
5
55
30
37
53
39
57
74
3
58
16
11
3
42
43
78
16
84
35
38
12
43
195
18
73
29
59
60
59
71
44
18
12
64
85
38
26
56
60
4
8
64
4
45
53
40
51
16
6
85
44
57
2
46
5
74
38
22
302
12
30
41
35
53
93
103
43
102
23
51
51
3
15
153
17
49
3
17
202
53
24
43
51
23
77
74
125
36
58
60
51
48
44
2
50
20
5
24
87
76
55
22
118
42
27
43
71
12
34
102
73
5
71
47
49
98
4
60
56
3
39
42
55
75
73
110
43
4
65
120
35
26
227
48
68
40
50
61
6
30
34
5
5
36
47
46
74
71
24
36
41
2
107
12
84
5
31
22
61
28
41
26
59
5
40
48
7
29
4
10
36
54
78
15
25
38
54
35
45
3
59
59
49
4
38
38
54
58
12
34
73
42
58
3
33
46
34
3
8
3
216
118
6
33
57
66
12
9
53
53
62
60
3
43
24
65
53
62
5
44
33
60
149
50
26
52
5
5
40
26
61
136
31
205
29
95
4
77
52
76
64
58
63
16
26
68
170
57
46
75
3
4
43
3
9
43
53
55
44
34
72
32
49
7
49
31
54
42
3
133
47
4
43
145
58
64
134
100
24
4
44
62
62
243
153
27
5
46
48
18
49
26
34
44
33
12
12
49
38
43
52
39
5
24
50
57
4
24
47
47
66
88
80
28
48
35
18
6
20
58
53
4
55
39
38
59
3
3
58
33
2
50
39
42
32
48
61
26
46
23
34
19
3
43
32
6
3
20
31
146
51
23
45
36
4
3
51
14
54
58
88
35
49
62
50
44
12
107
78
47
48
33
51
252
42
